Lead,Lead I
57,625
67,069
77,096
87,617
98,511
109,662
120,955
132,278
143,57
154,788
165,894
176,869
187,692
198,346
208,831
219,158
229,33
239,346
249,196
258,867
268,366
277,701
286,868
295,85
304,576
312,947
320,869
328,238
334,946
340,888
345,937
349,955
352,84
354,512
354,908
353,987
351,691
347,959
342,757
336,081
327,977
318,52
307,791
295,878
282,891
268,961
254,255
238,964
223,249
207,249
191,103
174,939
158,905
143,171
127,881
113,154
99,09
85,771
73,285
61,72
51,143
41,582
33,028
25,449
18,825
13,153
8,42
4,602
1,654
-0,49
-1,885
-2,574
-2,611
-2,062
-1,009
0,445
2,2
4,186
6,35
8,641
11,002
13,36
15,643
17,795
19,774
21,542
23,052
24,256
25,117
25,625
25,787
25,635
25,206
24,529
23,629
22,544
21,319
20,009
18,677
17,371
16,124
14,975
13,971
13,155
12,563
12,212
12,1
12,219
12,551
13,079
13,781
14,626
15,573
16,577
17,589
18,569
19,491
20,325
21,04
21,611
22,014
22,235
22,272
22,121
21,781
21,25
20,533
19,636
18,572
17,355
16,002
14,521
12,918
11,197
9,361
7,411
5,347
3,165
0,86
-1,574
-4,138
-6,834
-9,662
-12,625
-15,725
-18,966
-22,349
-25,874
-29,54
-33,347
-37,291
-41,368
-45,575
-49,905
-54,351
-58,908
-63,568
-68,327
-73,178
-78,113
-83,127
-88,212
-93,36
-98,561
-103,807
-109,088
-114,393
-119,711
-125,03
-130,34
-135,629
-140,885
-146,098
-151,256
-156,349
-161,364
-166,292
-171,121
-175,841
-180,442
-184,914
-189,247
-193,431
-197,458
-201,318
-205,002
-208,503
-211,81
-214,917
-217,814
-220,495
-222,951
-225,176
-227,163
-228,905
-230,398
-231,638
-232,62
-233,342
-233,802
-233,999
-233,932
-233,6
-233,006
-232,148
-231,031
-229,655
-228,023
-226,141
-224,012
-221,641
-219,033
-216,196
-213,136
-209,86
-206,378
-202,698
-198,831
-194,786
-190,576
-186,214
-181,714
-177,088
-172,354
-167,527
-162,622
-157,658
-152,651
-147,617
-142,575
-137,543
-132,537
-127,575
-122,675
-117,855
-113,134
-108,531
-104,063
-99,749
-95,607
-91,655
-87,909
-84,387
-81,101
-78,064
-75,29
-72,788
-70,572
-68,65
-67,032
-65,725
-64,731
-64,056
-63,699
-63,659
-63,929
-64,502
-65,367
-66,519
-67,954
-69,669
-71,657
-73,906
-76,406
-79,137
-82,082
-85,217
-88,506
-91,915
-95,406
-98,944
-102,5
-106,044
-109,538
-112,943
-116,207
-119,279
-122,118
-124,688
-126,957
-128,916
-130,566
-131,92
-133,021
-133,904
-134,617
-135,228
-135,803
-136,423
-137,18
-138,147
-139,441
-141,23
-143,593
-146,549
-149,999
-153,67
-157,317
-160,752
-163,688
-165,797
-166,88
-166,851
-166,034
-165,165
-164,835
-165,486
-167,458
-170,914
-175,951
-182,397
-189,197
-194,621
-196,943
-194,434
-185,778
-170,001
-145,901
-112,731
-70,983
-22,007
32,211
89,068
146,272
201,389
251,019
291,853
321,296
337,158
338,17
323,924
293,831
248,085
188,424
117,197
37,307
-47,742
-134,664
-220,143
-300,141
-371,125
-430,528
-476,353
-507,714
-524,615
-527,5
-517,828
-498,321
-471,939
-441,765
-410,945
-381,947
-356,981
-337,965
-325,659
-319,765
-319,475
-323,417
-329,931
-337,584
-344,716
-349,68
-351,639
-350,363
-346,03
-339,27
-330,853
-321,483
-312,092
-303,656
-296,706
-291,483
-288,003
-286,037
-285,342
-285,696
-286,755
-288,154
-289,684
-291,226
-292,721
-294,188
-295,595
-296,885
-298,033
-299,018
-299,795
-300,314
-300,508
-300,299
-299,654
-298,566
-297,04
-295,097
-292,751
-290,018
-286,94
-283,565
-279,945
-276,146
-272,214
-268,192
-264,129
-260,067
-256,052
-252,122
-248,288
-244,539
-240,86
-237,213
-233,561
-229,859
-226,04
-222,04
-217,797
-213,25
-208,357
-203,086
-197,402
-191,279
-184,701
-177,658
-170,169
-162,269
-153,994
-145,397
-136,538
-127,484
-118,318
-109,109
-99,905
-90,743
-81,645
-72,634
-63,737
-54,977
-46,37
-37,929
-29,664
-21,579
-13,69
-6,001
1,486
8,776
15,859
22,699
29,224
35,339
40,94
45,929
50,212
53,688
56,262
57,85
58,39
57,83
56,13
53,247
49,132
43,749
37,095
29,206
20,157
10,052
-0,992
-12,854
-25,393
-38,455
-51,89
-65,559
-79,341
-93,127
-106,798
-120,229
-133,278
-145,818
-157,749
-169,001
-179,522
-189,277
-198,243
-206,401
-213,758
-220,341
-226,166
-231,249
-235,597
-239,221
-242,153
-244,442
-246,145
-247,318
-248,003
-248,231
-248,035
-247,448
-246,498
-245,22
-243,641
-241,781
-239,681
-237,387
-234,939
-232,372
-229,704
-226,933
-224,067
-221,113
-218,08
-214,991
-211,862
-208,707
-205,548
-202,392
-199,238
-196,084
-192,904
-189,66
-186,33
-182,9
-179,365
-175,742
-172,038
-168,257
-164,409
-160,488
-156,487
-152,403
-148,229
-143,977
-139,681
-135,365
-131,054
-126,773
-122,539
-118,379
-114,326
-110,376
-106,483
-102,643
-98,916
-95,448
-92,399
-89,815
-87,582
-85,542
-83,646
-81,82
-79,866
-77,394
-73,94
-69,309
-63,739
-57,691
-51,461
-45,256
-39,347
-34,216
-30,52
-28,601
-28,232
-28,799
-29,805
-30,957
-32,025
-32,687
-32,455
-30,997
-28,378
-25,08
-21,598
-18,236
-15,216
-12,604
-10,402
-8,701
-7,529
-6,59
-5,508
-3,967
-1,591
1,571
5,065
8,673
12,321
15,764
18,758
20,971
21,852
21,393
20,16
18,482
16,538
14,544
12,589
10,923
10,059
10,079
10,622
11,472
12,473
13,513
14,648
15,788
16,649
17,167
17,465
17,634
17,789
17,969
18,084
18,108
18,076
17,968
17,745
17,34
16,635
15,581
14,192
12,507
10,598
8,526
6,327
4,053
1,765
-0,48
-2,62
-4,612
-6,437
-8,051
-9,402
-10,411
-10,968
-11
-10,476
-9,39
-7,77
-5,646
-3,043
-0,009
3,388
7,088
11,042
15,216
19,605
24,185
28,919
33,757
38,624
43,468
48,258
52,972
57,595
62,122
66,54
70,859
75,116
79,337
83,541
87,735
91,906
96,05
100,172
104,282
108,397
112,525
116,665
120,815
124,983
129,18
133,424
137,719
142,043
146,371
150,674
154,926
159,105
163,181
167,111
170,842
174,327
177,53
180,423
182,977
185,154
186,907
188,177
188,923
189,122
188,763
187,845
186,37
184,349
181,814
178,818
175,435
171,736
167,789
163,654
159,394
155,079
150,787
146,603
142,601
138,847
135,405
132,331
129,678
127,485
125,772
124,529
123,708
123,254
123,088
123,137
123,338
123,616
123,883
124,04
123,98
123,596
122,8
121,48
119,495
116,767
113,304
109,255
104,965
100,837
97,251
94,635
93,44
93,95
96,209
99,883
104,199
108,272
111,348
112,768
111,983
108,875
103,977
98,623
94,932
95,404
102,406
118,034
144,272
182,4
232,492
293,432
362,815
437,19
512,872
586,047
652,365
707,836
749,42
774,818
783,015
774,208
748,845
708,054
654,175
589,885
518,116
442,214
365,02
289,12
217,711
153,647
99,068
55,825
24,74
5,803
-0,968
3,843
18,449
40,617
67,713
96,808
125,789
152,844
175,885
193,317
204,3
208,705
207,332
201,465
192,056
180,202
167,41
155,139
144,769
137,137
132,288
129,963
129,924
131,797
135,048
139,03
142,954
146,362
149,231
151,691
153,968
156,283
158,782
161,667
165,191
169,455
174,412
179,93
185,789
191,811
197,881
203,877
209,686
215,208
220,342
225,01
229,158
232,746
235,757
238,191
240,071
241,446
242,396
243,035
243,493
243,887
244,323
244,897
245,698
246,831
248,41
250,54
253,32
256,829
261,121
266,239
272,2
278,996
286,594
294,923
303,896
313,427
323,425
333,797
344,453
355,281
366,161
376,987
387,648
398,047
408,105
417,746
426,916
435,578
443,715
451,338
458,483
465,192
471,525
477,543
483,306
488,884
494,347
499,746
505,129
510,525
515,954
521,43
526,953
532,503
538,044
543,503
548,78
553,752
558,273
562,187
565,34
567,567
568,709
568,638
567,24
564,42
560,095
554,176
546,596
537,31
526,299
513,587
499,232
483,328
466,011
447,448
427,827
407,358
386,257
364,719
342,93
321,077
299,348
277,949
257,082
236,929
217,657
199,409
182,305
166,433
151,833
138,508
126,422
115,52
105,732
96,995
89,241
82,391
76,351
71,009
66,246
61,948
57,999
54,284
50,686
47,112
43,502
39,822
36,067
32,237
28,344
24,396
20,409
16,406
12,414
8,47
4,605
0,856
-2,737
-6,128
-9,265
-12,115
-14,661
-16,904
-18,856
-20,532
-21,952
-23,138
-24,121
-24,929
-25,591
-26,133
-26,577
-26,949
-27,277
-27,591
-27,923
-28,296
-28,725
-29,221
-29,789
-30,434
-31,156
-31,953
-32,819
-33,747
-34,735
-35,779
-36,878
-38,029
-39,225
-40,461
-41,732
-43,032
-44,358
-45,704
-47,065
-48,439
-49,822
-51,21
-52,601
-53,992
-55,38
-56,76
-58,129
-59,483
-60,818
-62,131
-63,42
-64,681
-65,914
-67,115
-68,285
-69,422
-70,526
-71,597
-72,633
-73,636
-74,606
-75,543
-76,447
-77,319
-78,16
-78,969
-79,747
-80,494
-81,211
-81,898
-82,555
-83,184
-83,783
-84,354
-84,896
-85,411
-85,898
-86,357
-86,79
-87,196
-87,576
-87,93
-88,258
-88,561
-88,839
-89,093
-89,323
-89,529
-89,713
-89,876
-90,017
-90,139
-90,242
-90,328
-90,398
-90,455
-90,5
-90,536
-90,565
-90,589
-90,613
-90,639
-90,67
-90,71
-90,762
-90,83
-90,917
-91,027
-91,164
-91,33
-91,53
-91,767
-92,045
-92,366
-92,733
-93,149
-93,617
-94,137
-94,711
-95,34
-96,026
-96,767
-97,565
-98,418
-99,325
-100,286
-101,299
-102,362
-103,472
-104,627
-105,823
-107,058
-108,327
-109,627
-110,953
-112,302
-113,67
-115,052
-116,445
-117,843
-119,245
-120,644
-122,038
-123,423
-124,794
-126,149
-127,484
-128,797
-130,085
-131,347
-132,58
-133,785
-134,961
-136,108
-137,226
-138,317
-139,381
-140,421
-141,437
-142,434
-143,413
-144,378
-145,331
-146,277
-147,219
-148,16
-149,104
-150,054
-151,013
-151,983
-152,967
-153,966
-154,98
-156,012
-157,061
-158,128
-159,214
-160,318
-161,441
-162,583
-163,742
-164,917
-166,106
-167,305
-168,51
-169,716
-170,918
-172,109
-173,281
-174,428
-175,54
-176,611
-177,632
-178,596
-179,492
-180,308
-181,034
-181,665
-182,194
-182,618
-182,935
-183,146
-183,257
-183,274
-183,209
-183,067
-182,856
-182,578
-182,235
-181,829
-181,359
-180,83
-180,238
-179,574
-178,826
-177,976
-177,008
-175,904
-174,643
-173,194
-171,533
-169,642
-167,513
-165,147
-162,553
-159,748
-156,757
-153,609
-150,348
-147,03
-143,719
-140,487
-137,406
-134,54
-131,962
-129,75
-127,973
-126,686
-125,937
-125,755
-126,164
-127,17
-128,765
-130,929
-133,621
-136,788
-140,369
-144,294
-148,493
-152,906
-157,466
-162,104
-166,764
-171,388
-175,917
-180,302
-184,482
-188,409
-192,059
-195,416
-198,493
-201,301
-203,825
-206,057
-207,978
-209,556
-210,804
-211,717
-212,246
-212,417
-212,31
-212,045
-211,889
-212,079
-212,657
-213,672
-215,13
-216,856
-218,762
-220,647
-221,974
-222,294
-221,377
-219,057
-215,473
-211,045
-205,938
-200,466
-195,358
-191,332
-189,209
-189,707
-193,033
-199,044
-207,636
-218,476
-230,808
-243,461
-254,501
-261,756
-263,144
-256,681
-240,685
-213,616
-174,254
-122,329
-58,815
14,37
94,282
177,363
259,992
337,95
406,716
462,386
501,728
522,472
523,833
505,831
469,075
415,496
347,946
269,676
184,569
96,516
8,973
-74,294
-149,741
-214,75
-266,916
-304,343
-326,348
-332,658
-324,612
-305,968
-279,219
-246,149
-208,149
-164,395
-118,708
-78,81
-51,259
-43,164
-54,388
-77,287
-104,751
-128,931
-146,174
-158,419
-166,734
-172,262
-175,316
-174,374
-169,462
-161,715
-152,452
-143,418
-135,544
-128,949
-123,664
-119,529
-116,273
-113,629
-111,203
-108,581
-105,594
-102,25
-98,632
-94,883
-91,106
-87,368
-83,754
-80,331
-77,125
-74,128
-71,296
-68,564
-65,865
-63,123
-60,272
-57,247
-53,982
-50,426
-46,53
-42,245
-37,536
-32,374
-26,751
-20,68
-14,181
-7,282
-0,031
7,515
15,275
23,144
31,038
38,884
46,625
54,229
61,658
68,876
75,856
82,573
89,022
95,221
101,19
106,958
112,575
118,105
123,635
129,279
135,131
141,262
147,726
154,551
161,767
169,41
177,508
186,098
195,201
204,816
214,937
225,548
236,606
248,051
259,793
271,705
283,669
295,577
307,331
318,851
330,053
340,838
351,095
360,692
369,494
377,381
384,227
389,915
394,344
397,422
399,09
399,336
398,152
395,537
391,49
385,998
379,054
370,674
360,903
349,821
337,526
324,124
309,74
294,51
278,581
262,117
245,265
228,143
210,856
193,51
176,21
159,083
142,26
125,863
109,992
94,724
80,121
66,237
53,116
40,78
29,222
18,403
8,282
-1,172
-9,972
-18,132
-25,67
-32,623
-39,042
-44,975
-50,459
-55,532
-60,23
-64,597
-68,684
-72,531
-76,144
-79,501
-82,565
-85,311
-87,737
-89,848
-91,654
-93,162
-94,375
-95,314
-96,013
-96,5
-96,798
-96,911
-96,83
-96,557
-96,119
-95,566
-94,966
-94,377
-93,833
-93,362
-92,987
-92,723
-92,574
-92,523
-92,526
-92,553
-92,587
-92,62
-92,664
-92,722
-92,778
-92,81
-92,786
-92,677
-92,469
-92,151
-91,708
-91,139
-90,453
-89,676
-88,854
-88,022
-87,201
-86,407
-85,64
-84,908
-84,221
-83,589
-83,02
-82,522
-82,098
-81,755
-81,499
-81,331
-81,245
-81,229
-81,259
-81,319
-81,398
-81,49
-81,589
-81,693
-81,798
-81,904
-82,014
-82,129
-82,25
-82,377
-82,508
-82,642
-82,78
-82,926
-83,084
-83,256
-83,446
-83,653
-83,88
-84,127
-84,394
-84,681
-84,984
-85,301
-85,632
-85,976
-86,331
-86,698
-87,074
-87,459
-87,853
-88,254
-88,663
-89,077
-89,495
-89,916
-90,34
-90,764
-91,189
-91,614
-92,036
-92,457
-92,876
-93,292
-93,705
-94,117
-94,526
-94,935
-95,343
-95,752
-96,162
-96,576
-96,994
-97,419
-97,852
-98,297
-98,754
-99,228
-99,72
-100,232
-100,768
-101,33
-101,921
-102,542
-103,196
-103,884
-104,61
-105,375
-106,18
-107,026
-107,915
-108,848
-109,824
-110,844
-111,908
-113,014
-114,163
-115,353
-116,581
-117,848
-119,149
-120,483
-121,847
-123,238
-124,653
-126,088
-127,541
-129,008
-130,484
-131,967
-133,452
-134,936
-136,416
-137,887
-139,347
-140,793
-142,22
-143,627
-145,012
-146,371
-147,702
-149,005
-150,277
-151,517
-152,725
-153,9
-155,041
-156,15
-157,226
-158,27
-159,284
-160,269
-161,227
-162,159
-163,068
-163,956
-164,825
-165,676
-166,513
-167,338
-168,151
-168,955
-169,751
-170,538
-171,317
-172,088
-172,85
-173,602
-174,344
-175,074
-175,791
-176,493
-177,18
-177,848
-178,496
-179,118
-179,713
-180,273
-180,796
-181,273
-181,7
-182,07
-182,374
-182,608
-182,765
-182,837
-182,816
-182,692
-182,457
-182,106
-181,636
-181,045
-180,333
-179,502
-178,557
-177,51
-176,369
-175,143
-173,839
-172,461
-171,013
-169,499
-167,922
-166,29
-164,603
-162,854
-161,034
-159,131
-157,133
-155,025
-152,789
-150,4
-147,838
-145,095
-142,166
-139,061
-135,792
-132,377
-128,842
-125,215
-121,539
-117,864
-114,249
-110,761
-107,466
-104,427
-101,714
-99,399
-97,547
-96,206
-95,416
-95,2
-95,575
-96,544
-98,098
-100,219
-102,873
-106,021
-109,613
-113,586
-117,88
-122,435
-127,184
-132,059
-136,998
-141,937
-146,818
-151,589
-156,196
-160,593
-164,747
-168,633
-172,247
-175,578
-178,61
-181,327
-183,7
-185,718
-187,395
-188,765
-189,845
-190,628
-191,158
-191,568
-192,088
-192,965
-194,331
-196,143
-198,347
-201,064
-204,338
-208,037
-211,748
-214,801
-216,758
-217,645
-217,615
-216,588
-214,532
-211,568
-208,312
-206,059
-205,83
-208,049
-212,801
-220,034
-229,619
-241,253
-253,821
-265,12
-272,839
-274,739
-268,919
-254,119
-228,838
-191,655
-142,457
-82,125
-13,294
59,386
133,034
205,762
276,113
344,552
406,647
454,419
480,74
477,787
445,517
391,135
321,879
246,502
169,154
89,072
7,34
-74,705
-153,846
-224,724
-284,332
-331,222
-364,579
-385,003
-393,077
-389,368
-375,773
-354,765
-328,655
-299,922
-270,892
-243,398
-219,434
-200,797
-188,102
-181,219
-179,668
-182,44
-188,359
-196,311
-204,716
-211,907
-216,996
-219,621
-219,771
-217,859
-214,378
-209,808
-204,967
-200,776
-197,715
-195,952
-195,405
-195,744
-196,648
-197,821
-198,834
-199,223
-198,688
-197,065
-194,303
-190,454
-185,547
-179,596
-172,647
-164,768
-156,022
-146,459
-136,12
-125,044
-113,294
-100,957
-88,122
-74,86
-61,226
-47,26
-32,994
-18,466
-3,709
11,251
26,386
41,66
57,034
72,458
87,893
103,317
118,721
134,107
149,477
164,824
180,132
195,383
210,573
225,7
240,771
255,795
270,796
285,813
300,907
316,143
331,572
347,226
363,121
379,263
395,663
412,33
429,274
446,505
464,019
481,809
499,86
518,136
536,584
555,128
573,662
592,086
610,303
628,221
645,757
662,828
679,35
695,242
710,421
724,786
738,233
750,651
761,928
771,974
780,707
788,062
793,986
798,423
801,33
802,683
802,462
800,65
797,231
792,178
785,486
777,183
767,319
755,973
743,233
729,19
713,962
697,682
680,502
662,588
644,091
625,145
605,887
586,465
567,044
547,813
528,94
510,572
492,843
475,871
459,77
444,632
430,503
417,392
405,281
394,134
383,923
374,626
366,204
358,601
351,743
345,534
339,885
334,71
329,909
325,378
321,007
316,706
312,427
308,151
303,873
299,595
295,32
291,047
286,795
282,59
278,448
274,39
270,433
266,597
262,921
259,454
256,241
253,319
250,692
248,351
246,284
244,478
242,905
241,538
240,334
239,249
238,267
237,378
236,565
235,816
235,101
234,386
233,646
232,86
232,014
231,101
230,11
229,033
227,877
226,651
225,37
224,054
222,694
221,282
219,816
218,294
216,718
215,096
213,427
211,71
209,954
208,162
206,344
204,507
202,65
200,774
198,876
196,956
195,021
193,081
191,14
189,205
187,279
185,366
183,473
181,606
179,763
177,945
176,152
174,38
172,632
170,908
169,208
167,53
165,874
164,236
162,615
161,01
159,418
157,835
156,26
154,687
153,116
151,544
149,967
148,383
146,788
145,181
143,557
141,916
140,254
138,568
136,858
135,121
133,357
131,567
129,75
127,907
126,04
124,149
122,238
120,307
118,358
116,393
114,414
112,425
110,428
108,427
106,426
104,427
102,435
100,455
98,491
96,546
94,624
92,728
90,864
89,037
87,257
85,53
83,857
82,24
80,679
79,169
77,703
76,269
74,85
73,428
71,988
70,514
68,996
67,421
65,774
64,038
62,191
60,216
58,102
55,843
53,439
50,902
48,246
45,502
42,711
39,913
37,141
34,425
31,777
29,206
26,719
24,325
22,033
19,854
17,781
15,796
13,865
11,936
9,942
7,798
5,39
2,605
-0,669
-4,528
-9,043
-14,272
-20,269
-27,088
-34,785
-43,416
-53,018
-63,606
-75,177
-87,699
-101,117
-115,339
-130,236
-145,657
-161,44
-177,434
-193,504
-209,531
-225,383
-240,924
-256,007
-270,477
-284,187
-297,006
-308,808
-319,485
-328,962
-337,199
-344,2
-350,004
-354,665
-358,241
-360,787
-362,352
-363
-362,809
-361,863
-360,262
-358,111
-355,51
-352,573
-349,407
-346,095
-342,689
-339,214
-335,658
-332,005
-328,234
-324,315
-320,23
-315,96
-311,485
-306,792
-301,865
-296,688
-291,251
-285,534
-279,521
-273,224
-266,678
-259,935
-253,083
-246,209
-239,397
-232,752
-226,36
-220,295
-214,625
-209,397
-204,647
-200,415
-196,731
-193,621
-191,112
-189,2
-187,865
-187,076
-186,775
-186,904
-187,408
-188,21
-189,246
-190,467
-191,83
-193,311
-194,891
-196,537
-198,211
-199,871
-201,477
-203
-204,421
-205,715
-206,864
-207,855
-208,678
-209,339
-209,839
-210,167
-210,303
-210,232
-209,946
-209,465
-208,837
-208,108
-207,33
-206,575
-205,918
-205,459
-205,313
-205,56
-206,284
-207,603
-209,588
-212,276
-215,63
-219,434
-223,413
-227,319
-230,811
-233,487
-235,057
-235,286
-234,189
-232,29
-230,211
-228,532
-227,895
-228,788
-231,475
-236,072
-242,083
-248,014
-251,94
-251,768
-245,407
-230,929
-206,388
-170,24
-121,677
-62,057
5,045
77,095
152,124
229,088
308,85
386,622
453,114
499,866
517,248
503,825
466,92
413,051
350,387
283,339
210,454
132,715
51,934
-29,09
-104,811
-171,261
-226,344
-268,433
-297,353
-313,583
-317,34
-309,515
-292,043
-267,201
-237,548
-205,914
-174,54
-145,336
-120,542
-101,896
-90,059
-84,989
-85,886
-91,346
-100,134
-110,929
-121,827
-131,047
-137,514
-140,734
-140,868
-138,527
-134,253
-128,654
-122,685
-117,313
-113,129
-110,383
-108,962
-108,509
-108,712
-109,284
-109,856
-110,054
-109,638
-108,488
-106,584
-104,001
-100,802
-97,028
-92,734
-87,979
-82,808
-77,265
-71,401
-65,264
-58,901
-52,36
-45,67
-38,858
-31,949
-24,958
-17,895
-10,758
-3,535
3,777
11,169
18,625
26,132
33,682
41,27
48,887
56,511
64,121
71,705
79,258
86,774
94,243
101,638
108,923
116,069
123,065
129,915
136,632
143,23
149,738
156,197
162,667
169,222
175,919
182,798
189,883
197,199
204,778
212,67
220,937
229,626
238,766
248,371
258,442
268,963
279,898
291,181
302,704
314,35
326,005
337,57
348,959
360,083
370,829
381,065
390,63
399,369
407,137
413,793
419,204
423,256
425,845
426,91
426,437
424,429
420,898
415,853
409,292
401,216
391,659
380,689
368,404
354,922
340,364
324,863
308,569
291,639
274,24
256,518
238,585
220,539
202,479
184,51
166,763
149,383
132,49
116,184
100,553
85,668
71,599
58,41
46,128
34,751
24,257
14,622
5,842
-2,084
-9,164
-15,428
-20,932
-25,758
-29,978
-33,662
-36,891
-39,753
-42,351
-44,789
-47,142
-49,447
-51,724
-53,987
-56,258
-58,562
-60,916
-63,315
-65,734
-68,143
-70,523
-72,852
-75,098
-77,209
-79,112
-80,738
-82,045
-83,024
-83,689
-84,06
-84,156
-84,007
-83,654
-83,164
-82,618
-82,082
-81,609
-81,248
-81,054
-81,1
-81,478
-82,268
-83,524
-85,28
-87,546
-90,327
-93,626
-97,424
-101,68
-106,333
-111,307
-116,539
-121,988
-127,609
-133,356
-139,172
-144,983
-150,731
-156,373
-161,872
-167,202
-172,336
-177,246
-181,924
-186,378
-190,625
-194,697
-198,61
-202,365
-205,966
-209,415
-212,715
-215,881
-218,914
-221,805
-224,552
-227,148
-229,591
-231,882
-234,013
-235,967
-237,729
-239,277
-240,599
-241,69
-242,545
-243,163
-243,543
-243,686
-243,598
-243,291
-242,773
-242,053
-241,139
-240,041
-238,768
-237,335
-235,754
-234,042
-232,21
-230,273
-228,242
-226,132
-223,956
-221,724
-219,449
-217,14
-214,809
-212,466
-210,125
-207,795
-205,487
-203,213
-200,981
-198,803
-196,687
-194,641
-192,673
-190,79
-188,999
-187,305
-185,712
-184,226
-182,85
-181,587
-180,439
-179,408
-178,495
-177,702
-177,027
-176,472
-176,034
-175,714
-175,508
-175,416
-175,434
-175,558
-175,787
-176,115
-176,539
-177,053
-177,653
-178,335
-179,092
-179,919
-180,812
-181,764
-182,771
-183,828
-184,928
-186,067
-187,24
-188,442
-189,667
-190,913
-192,173
-193,443
-194,719
-195,997
-197,272
-198,54
-199,797
-201,038
-202,259
-203,457
-204,626
-205,764
-206,865
-207,928
-208,947
-209,919
-210,842
-211,711
-212,522
-213,272
-213,955
-214,569
-215,108
-215,565
-215,937
-216,216
-216,397
-216,475
-216,443
-216,295
-216,027
-215,632
-215,107
-214,446
-213,643
-212,693
-211,59
-210,328
-208,901
-207,305
-205,532
-203,576
-201,432
-199,097
-196,565
-193,83
-190,887
-187,726
-184,341
-180,731
-176,897
-172,84
-168,567
-164,085
-159,408
-154,557
-149,551
-144,409
-139,143
-133,765
-128,287
-122,725
-117,097
-111,421
-105,705
-99,949
-94,153
-88,312
-82,415
-76,443
-70,365
-64,138
-57,731
-51,125
-44,312
-37,296
-30,079
-22,661
-15,05
-7,265
0,658
8,67
16,719
24,748
32,681
40,429
47,877
54,905
61,417
67,34
72,619
77,211
81,072
84,16
86,454
87,954
88,683
88,675
87,973
86,633
84,741
82,418
79,812
77,073
74,325
71,669
69,196
66,992
65,152
63,77
62,91
62,615
62,908
63,794
65,272
67,318
69,867
72,818
76,034
79,363
82,679
85,854
88,757
91,28
93,263
94,509
94,916
94,456
93,223
91,474
89,435
87,295
85,366
84,036
83,617
84,306
85,86
87,628
89,076
89,763
89,367
87,696
84,556
80,036
75,136
71,581
71,218
76,01
87,48
106,856
135,645
174,796
224,009
281,943
346,299
414,016
482,246
547,914
606,999
655,761
691,174
710,946
714,248
701,264
672,295
628,491
572,348
506,793
435,256
361,371
287,844
217,033
151,569
93,628
44,725
5,871
-22,927
-42,321
-52,627
-54,286
-48,5
-36,878
-21,331
-3,83
14,243
31,915
47,872
60,631
69,388
74,037
75,036
73,264
69,457
64,149
58,27
53,171
49,768
48,462
49,278
51,79
55,575
60,369
65,65
70,641
74,849
78,033
80,135
81,393
82,021
82,143
82,002
81,878
81,921
82,211
82,761
83,492
84,373
85,393
86,504
87,667
88,852
90,038
91,227
92,426
93,62
94,8
95,959
97,1
98,245
99,411
100,608
101,843
103,115
104,426
105,788
107,205
108,68
110,229
111,87
113,628
115,533
117,604
119,867
122,354
125,098
128,129
131,478
135,167
139,224
143,686
148,582
153,933
159,753
166,03
172,749
179,887
187,424
195,335
203,587
212,127
220,901
229,866
238,99
248,255
257,631
267,067
276,521
285,956
295,347
304,678
313,929
323,069
332,057
340,855
349,431
357,761
365,814
373,528
380,818
387,576
393,702
399,11
403,708
407,397
410,073
411,638
412,018
411,165
409,046
405,629
400,885
394,786
387,32
378,517
368,437
357,169
344,809
331,463
317,246
302,295
286,758
270,766
254,439
237,879
221,179
204,45
187,803
171,351
155,204
139,449
124,155
109,382
95,18
81,581
68,608
56,264
44,543
33,457
23,016
13,225
4,087
-4,42
-12,32
-19,643
-26,419
-32,679
-38,452
-43,777
-48,688
-53,202
-57,333
-61,088
-64,476
-67,528
-70,265
-72,696
-74,814
-76,605
-78,062
-79,183
-79,975
-80,445
-80,599
-80,439
-79,982
-79,261
-78,317
-77,202
-75,949
-74,581
-73,128
-71,636
-70,171
-68,798
-67,564
-66,506
-65,646
-65,006
-64,605
-64,456
-64,548
-64,858
-65,348
-65,969
-66,69
-67,49
-68,339
-69,203
-70,029
-70,772
-71,4
-71,893
-72,233
-72,41
-72,407
-72,218
-71,855
-71,336
-70,691
-69,956
-69,153
-68,299
-67,409
-66,501
-65,594
-64,707
-63,846
-63,012
-62,206
-61,429
-60,685
-59,976
-59,295
-58,63
-57,97
-57,298
-56,607
-55,892
-55,147
-54,371
-53,564
-52,726
-51,862
-50,981
-50,09
-49,195
-48,3
-47,408
-46,528
-45,664
-44,825
-44,015
-43,242
-42,508
-41,82
-41,18
-40,592
-40,058
-39,58
-39,158
-38,792
-38,485
-38,237
-38,05
-37,924
-37,861
-37,861
-37,924
-38,051
-38,241
-38,492
-38,805
-39,177
-39,606
-40,091
-40,629
-41,218
-41,855
-42,539
-43,268
-44,039
-44,85
-45,7
-46,587
-47,508
-48,461
-49,446
-50,46
-51,502
-52,569
-53,661
-54,774
-55,908
-57,06
-58,228
-59,411
-60,606
-61,812
-63,026
-64,246
-65,47
-66,696
-67,923
-69,147
-70,368
-71,582
-72,787
-73,983
-75,165
-76,331
-77,48
-78,607
-79,71
-80,786
-81,831
-82,842
-83,816
-84,748
-85,637
-86,479
-87,27
-88,009
-88,692
-89,316
-89,881
-90,382
-90,819
-91,19
-91,492
-91,725
-91,887
-91,978
-91,998
-91,945
-91,819
-91,623
-91,355
-91,017
-90,611
-90,138
-89,601
-89,002
-88,346
-87,635
-86,876
-86,072
-85,23
-84,355
-83,453
-82,531
-81,594
-80,648
-79,701
-78,758
-77,826
-76,91
-76,018
-75,154
-74,326
-73,539
-72,799
-72,112
-71,483
-70,918
-70,422
-70
-69,656
-69,394
-69,219
-69,134
-69,143
-69,247
-69,449
-69,75
-70,15
-70,648
-71,242
-71,928
-72,704
-73,565
-74,508
-75,526
-76,616
-77,773
-78,991
-80,267
-81,596
-82,971
-84,388
-85,839
-87,316
-88,813
-90,322
-91,833
-93,339
-94,829
-96,296
-97,733
-99,131
-100,484
-101,781
-103,012
-104,166
-105,239
-106,227
-107,128
-107,944
-108,678
-109,335
-109,93
-110,477
-110,987
-111,472
-111,932
-112,368
-112,784
-113,181
-113,565
-113,933
-114,277
-114,58
-114,836
-115,031
-115,154
-115,189
-115,102
-114,866
-114,462
-113,877
-113,12
-112,205
-111,147
-109,967
-108,695
-107,373
-106,059
-104,82
-103,709
-102,775
-102,067
-101,634
-101,548
-101,872
-102,652
-103,923
-105,697
-107,978
-110,763
-114,039
-117,766
-121,887
-126,313
-130,945
-135,698
-140,494
-145,257
-149,906
-154,346
-158,484
-162,243
-165,557
-168,372
-170,635
-172,301
-173,336
-173,744
-173,567
-172,878
-171,769
-170,32
-168,596
-166,668
-164,63
-162,585
-160,644
-158,91
-157,454
-156,379
-155,833
-155,904
-156,596
-157,771
-159,097
-160,2
-160,767
-160,425
-158,768
-155,527
-150,598
-144,274
-137,291
-130,426
-124,341
-119,583
-116,569
-115,441
-115,905
-116,864
-116,446
-112,478
-102,78
-85,483
-58,938
-21,823
26,359
84,985
152,267
225,372
300,943
375,592
445,544
506,857
556,115
590,469
608,06
608,369
591,47
557,932
509,425
448,364
377,672
300,921
221,505
142,359
66,812
-1,954
-61,446
-109,51
-145,034
-167,98
-178,449
-177,113
-165,874
-147,059
-123,343
-97,891
-73,085
-50,816
-33,172
-21,367
-15,543
-15,402
-19,848
-27,131
-35,92
-44,811
-52,038
-56,584
-58,021
-56,181
-51,545
-44,914
-36,909
-28,371
-20,358
-13,462
-7,987
-4,059
-1,451
0,117
0,86
1,121
1,297
1,619
2,22
3,149
4,344
5,778
7,467
9,414
11,641
14,191
17,094
20,381
24,077
28,175
32,647
37,458
42,561
47,918
53,51
59,322
65,34
71,545
77,909
84,387
90,917
97,42
103,815
110,035
116,034
121,791
127,303
132,58
137,638
142,492
147,153
151,629
155,938
160,096
164,123
168,049
171,921
175,81
179,809
184,012
188,486
193,272
198,388
203,836
209,617
215,732
222,173
228,929
235,983
243,319
250,93
258,818
266,964
275,324
283,823
292,369
300,891
309,339
317,673
325,862
333,863
341,623
349,097
356,25
363,038
369,416
375,315
380,632
385,277
389,173
392,262
394,503
395,837
396,193
395,495
393,679
390,706
386,552
381,193
374,591
366,719
357,555
347,109
335,436
322,595
308,655
293,69
277,788
261,06
243,647
225,697
207,348
188,721
169,928
151,093
132,362
113,889
95,83
78,325
61,492
45,442
30,277
16,08
2,901
-9,24
-20,36
-30,488
-39,647
-47,86
-55,152
-61,563
-67,16
-72,02
-76,237
-79,902
-83,112
-85,968
-88,579
-91,031
-93,386
-95,681
-97,929
-100,133
-102,305
-104,45
-106,57
-108,66
-110,706
-112,691
-114,594
-116,389
-118,045
-119,52
-120,767
-121,755
-122,471
-122,912
-123,091
-123,025
-122,727
-122,221
-121,532
-120,686
-119,708
-118,621
-117,442
-116,195
-114,906
-113,604
-112,321
-111,08
-109,897
-108,785
-107,75
-106,797
-105,929
-105,143
-104,434
-103,795
-103,224
-102,717
-102,274
-101,89
-101,562
-101,282
-101,044
-100,843
-100,674
-100,531
-100,41
-100,304
-100,21
-100,126
-100,047
-99,973
-99,899
-99,821
-99,737
-99,642
-99,533
-99,408
-99,262
-99,093
-98,898
-98,674
-98,421
-98,136
-97,819
-97,468
-97,084
-96,665
-96,213
-95,728
-95,209
-94,658
-94,076
-93,464
-92,823
-92,154
-91,461
-90,743
-90,003
-89,243
-88,464
-87,668
-86,856
-86,03
-85,191
-84,34
-83,479
-82,61
-81,733
-80,852
-79,968
-79,083
-78,2
-77,321
-76,448
-75,584
-74,732
-73,892
-73,069
-72,264
-71,479
-70,717
-69,98
-69,269
-68,588
-67,937
-67,318
-66,734
-66,186
-65,675
-65,204
-64,774
-64,388
-64,046
-63,751
-63,505
-63,309
-63,166
-63,078
-63,045
-63,07
-63,152
-63,294
-63,494
-63,754
-64,073
-64,45
-64,885
-65,378
-65,925
-66,528
-67,183
-67,889
-68,646
-69,45
-70,3
-71,194
-72,13
-73,106
-74,119
-75,169
-76,252
-77,365
-78,506
-79,673
-80,862
-82,069
-83,293
-84,528
-85,772
-87,021
-88,27
-89,517
-90,758
-91,989
-93,207
-94,409
-95,592
-96,753
-97,889
-98,997
-100,076
-101,121
-102,131
-103,104
-104,037
-104,927
-105,771
-106,568
-107,315
-108,009
-108,647
-109,227
-109,747
-110,203
-110,593
-110,915
-111,167
-111,347
-111,453
-111,483
-111,437
-111,313
-111,11
-110,827
-110,463
-110,019
-109,492
-108,884
-108,192
-107,417
-106,558
-105,615
-104,589
-103,479
-102,285
-101,009
-99,651
-98,211
-96,692
-95,096
-93,423
-91,677
-89,86
-87,977
-86,029
-84,023
-81,962
-79,85
-77,694
-75,497
-73,266
-71,005
-68,72
-66,417
-64,1
-61,776
-59,45
-57,128
-54,815
-52,519
-50,244
-47,998
-45,787
-43,617
-41,493
-39,423
-37,413
-35,467
-33,593
-31,796
-30,081
-28,453
-26,917
-25,476
-24,133
-22,891
-21,752
-20,715
-19,782
-18,95
-18,219
-17,585
-17,046
-16,6
-16,243
-15,973
-15,785
-15,677
-15,646
-15,686
-15,793
-15,96
-16,179
-16,442
-16,742
-17,071
-17,417
-17,772
-18,124
-18,468
-18,794
-19,092
-19,353
-19,562
-19,709
-19,788
-19,794
-19,723
-19,575
-19,349
-19,049
-18,688
-18,277
-17,828
-17,343
-16,819
-16,254
-15,649
-15,003
-14,32
-13,593
-12,808
-11,955
-11,028
-10,018
-8,921
-7,719
-6,38
-4,883
-3,212
-1,369
0,628
2,759
5,008
7,344
9,733
12,125
14,453
16,663
18,71
20,55
22,143
23,431
24,344
24,827
24,838
24,343
23,334
21,796
19,722
17,125
14,027
10,471
6,521
2,228
-2,364
-7,201
-12,239
-17,42
-22,676
-27,951
-33,179
-38,295
-43,242
-47,948
-52,348
-56,394
-60,03
-63,222
-65,952
-68,202
-69,968
-71,263
-72,091
-72,468
-72,424
-71,992
-71,235
-70,224
-69,039
-67,793
-66,603
-65,598
-64,933
-64,731
-65,115
-66,24
-68,17
-70,889
-74,297
-78,125
-82,084
-85,917
-89,258
-91,681
-92,891
-92,703
-91,27
-89,185
-86,998
-85,2
-84,323
-84,758
-86,741
-90,206
-94,253
-97,148
-97,023
-91,869
-79,737
-59,03
-28,154
13,95
67,007
129,6
199,565
273,924
349,504
423,01
490,361
547,613
591,749
620,391
632,14
626,644
603,746
564,079
509,844
443,858
369,315
289,915
208,975
129,692
55,937
-8,962
-62,833
-104,069
-132,195
-147,638
-150,789
-142,901
-126,616
-104,695
-79,826
-54,761
-31,328
-11,032
4,293
13,808
17,836
17,014
12,49
5,71
-2,384
-10,657
-17,499
-22,016
-23,931
-23,191
-20,263
-15,768
-10,096
-3,908
1,861
6,696
10,363
12,781
14,175
14,777
14,728
14,313
13,906
13,715
13,842
14,311
15,03
15,957
17,108
18,476
20,037
21,785
23,72
25,865
28,275
30,979
33,973
37,242
40,762
44,525
48,542
52,834
57,405
62,255
67,369
72,723
78,305
84,102
90,096
96,266
102,575
108,993
115,508
122,114
128,808
135,583
142,417
149,278
156,154
163,039
169,939
176,868
183,829
190,817
197,834
204,879
211,961
219,093
226,273
233,495
240,757
248,06
255,42
262,866
270,411
278,059
285,809
293,653
301,593
309,638
317,791
326,047
334,393
342,8
351,239
359,678
368,075
376,374
384,505
392,383
399,924
407,047
413,669
419,701
425,043
429,588
433,228
435,866
437,424
437,84
437,073
435,095
431,889
427,457
421,817
414,993
407,021
397,942
387,794
376,64
364,562
351,651
338,024
323,801
309,09
293,992
278,595
262,972
247,2
231,347
215,478
199,664
183,979
168,503
153,334
138,555
124,238
110,449
97,22
84,563
72,499
61,038
50,193
39,982
30,418
21,505
13,251
5,647
-1,33
-7,714
-13,571
-18,969
-23,976
-28,668
-33,095
-37,288
-41,28
-45,09
-48,733
-52,231
-55,597
-58,842
-61,982
-65,024
-67,971
-70,82
-73,548
-76,129
-78,53
-80,713
-82,653
-84,341
-85,772
-86,951
-87,89
-88,599
-89,095
-89,399
-89,524
-89,488
-89,305
-88,988
-88,557
-88,035
-87,447
-86,82
-86,178
-85,536
-84,906
-84,297
-83,711
-83,152
-82,617
-82,104
-81,608
-81,127
-80,663
-80,215
-79,783
-79,365
-78,96
-78,564
-78,175
-77,791
-77,41
-77,029
-76,647
-76,262
-75,876
-75,487
-75,096
-74,703
-74,306
-73,904
-73,498
-73,085
-72,665
-72,238
-71,802
-71,36
-70,911
-70,458
-70,002
-69,547
-69,094
-68,647
-68,21
-67,784
-67,373
-66,98
-66,607
-66,257
-65,933
-65,636
-65,37
-65,137
-64,939
-64,777
-64,655
-64,574
-64,536
-64,542
-64,594
-64,692
-64,839
-65,035
-65,282
-65,58
-65,931
-66,336
-66,795
-67,307
-67,874
-68,494
-69,167
-69,891
-70,665
-71,488
-72,357
-73,271
-74,228
-75,226
-76,264
-77,34
-78,451
-79,595
-80,771
-81,976
-83,209
-84,467
-85,748
-87,05
-88,371
-89,708
-91,061
-92,427
-93,802
-95,186
-96,576
-97,968
-99,362
-100,753
-102,141
-103,522
-104,895
-106,257
-107,608
-108,945
-110,266
-111,571
-112,857
-114,124
-115,369
-116,592
-117,791
-118,965
-120,113
-121,233
-122,324
-123,386
-124,418
-125,418
-126,386
-127,321
-128,223
-129,09
-129,924
-130,722
-131,487
-132,217
-132,914
-133,578
-134,21
-134,809
-135,379
-135,918
-136,428
-136,909
-137,363
-137,791
-138,193
-138,57
-138,923
-139,253
-139,563
-139,852
-140,121
-140,374
-140,61
-140,831
-141,039
-141,234
-141,419
-141,595
-141,763
-141,925
-142,082
-142,235
-142,385
-142,533
-142,68
-142,825
-142,971
-143,116
-143,261
-143,406
-143,551
-143,696
-143,841
-143,987
-144,132
-144,278
-144,423
-144,568
-144,713
-144,858
-145,002
-145,145
-145,286
-145,427
-145,565
-145,701
-145,833
-145,963
-146,087
-146,207
-146,321
-146,428
-146,527
-146,618
-146,701
-146,773
-146,836
-146,888
-146,93
-146,96
-146,978
-146,984
-146,977
-146,956
-146,922
-146,871
-146,805
-146,722
-146,619
-146,497
-146,354
-146,188
-145,996
-145,778
-145,532
-145,254
-144,943
-144,596
-144,212
-143,787
-143,319
-142,807
-142,247
-141,637
-140,976
-140,26
-139,486
-138,653
-137,758
-136,799
-135,772
-134,676
-133,508
-132,268
-130,952
-129,559
-128,09
-126,542
-124,916
-123,211
-121,427
-119,566
-117,628
-115,615
-113,529
-111,372
-109,149
-106,862
-104,516
-102,115
-99,665
-97,171
-94,639
-92,075
-89,486
-86,881
-84,265
-81,649
-79,039
-76,446
-73,88
-71,351
-68,871
-66,453
-64,108
-61,849
-59,688
-57,638
-55,711
-53,915
-52,26
-50,755
-49,408
-48,228
-47,223
-46,401
-45,768
-45,329
-45,089
-45,05
-45,212
-45,572
-46,124
-46,865
-47,79
-48,902
-50,206
-51,7
-53,383
-55,249
-57,286
-59,479
-61,808
-64,24
-66,74
-69,271
-71,796
-74,286
-76,711
-79,036
-81,221
-83,213
-84,959
-86,412
-87,528
-88,275
-88,648
-88,647
-88,297
-87,65
-86,751
-85,662
-84,47
-83,25
-82,096
-81,113
-80,38
-80,03
-80,247
-81,134
-82,722
-84,899
-87,347
-89,735
-91,787
-93,125
-93,332
-92,137
-89,454
-85,656
-81,598
-78,16
-76,068
-75,896
-78,061
-82,665
-89,297
-96,648
-102,537
-104,436
-99,852
-86,689
-63,094
-27,631
20,19
79,657
148,748
224,3
302,639
380,042
452,353
515,328
565,34
599,397
615,638
613,604
593,435
555,908
503,046
437,617
362,883
282,707
200,682
119,965
44,101
-23,707
-81,154
-126,389
-158,64
-178,168
-185,329
-181,099
-167,689
-147,573
-123,345
-97,916
-73,363
-51,317
-33,671
-21,452
-14,622
-12,782
-14,9
-19,454
-25,403
-31,622
-36,568
-39,375
-39,738
-37,578
-33,384
-27,878
-21,541
-15,032
-9,233
-4,593
-1,301
0,589
1,341
1,252
0,536
-0,475
-1,389
-2
-2,203
-1,953
-1,307
-0,284
1,126
2,884
4,937
7,239
9,743
12,414
15,238
18,164
21,129
24,071
26,923
29,664
32,312
34,882
37,395
39,864
42,3
44,723
47,16
49,641
52,203
54,886
57,728
60,792
64,153
67,898
72,124
76,892
82,224
88,133
94,616
101,667
109,279
117,436
126,109
135,271
144,891
154,935
165,367
176,127
187,134
198,291
209,484
220,627
231,659
242,53
253,21
263,679
273,929
283,965
293,797
303,43
312,862
322,088
331,103
339,915
348,532
356,969
365,243
373,354
381,289
389,024
396,519
403,722
410,558
416,941
422,78
427,99
432,484
436,18
438,994
440,84
441,655
441,39
440,001
437,46
433,742
428,827
422,711
415,398
406,904
397,264
386,521
374,73
361,975
348,355
333,985
318,991
303,478
287,544
271,289
254,807
238,206
221,601
205,104
188,837
172,938
157,537
142,76
128,71
115,45
103,019
91,433
80,686
70,782
61,719
53,486
46,067
39,434
33,546
28,357
23,796
19,768
16,165
12,877
9,813
6,911
4,128
1,436
-1,179
-3,729
-6,22
-8,651
-11,02
-13,327
-15,566
-17,731
-19,802
-21,743
-23,51
-25,052
-26,336
-27,345
-28,073
-28,523
-28,707
-28,641
-28,349
-27,862
-27,206
-26,403
-25,478
-24,449
-23,341
-22,184
-21,011
-19,856
-18,745
-17,701
-16,738
-15,87
-15,105
-14,448
-13,899
-13,452
-13,106
-12,859
-12,709
-12,656
-12,698
-12,83
-13,047
-13,343
-13,712
-14,149
-14,648
-15,201
-15,802
-16,445
-17,125
-17,837
-18,574
-19,33
-20,1
-20,875
-21,649
-22,417
-23,172
-23,908
-24,62
-25,303
-25,954
-26,57
-27,147
-27,685
-28,182
-28,637
-29,052
-29,427
-29,762
-30,06
-30,322
-30,552
-30,751
-30,923
-31,073
-31,203
-31,319
-31,425
-31,526
-31,627
-31,734
-31,853
-31,987
-32,143
-32,326
-32,54
-32,791
-33,084
-33,423
-33,812
-34,254
-34,753
-35,312
-35,932
-36,614
-37,36
-38,169
-39,042
-39,977
-40,972
-42,026
-43,136
-44,299
-45,51
-46,768
-48,066
-49,4
-50,765
-52,155
-53,564
-54,987
-56,415
-57,843
-59,263
-60,67
-62,054
-63,41
-64,729
-66,006
-67,232
-68,401
-69,506
-70,541
-71,5
-72,377
-73,167
-73,865
-74,468
-74,971
-75,372
-75,668
-75,857
-75,938
-75,909
-75,771
-75,523
-75,166
-74,702
-74,132
-73,458
-72,683
-71,811
-70,844
-69,788
-68,647
-67,427
-66,132
-64,769
-63,344
-61,863
-60,335
-58,765
-57,162
-55,532
-53,884
-52,225
-50,563
-48,906
-47,26
-45,635
-44,035
-42,47
-40,945
-39,468
-38,043
-36,678
-35,378
-34,149
-32,995
-31,923
-30,935
-30,037
-29,231
-28,523
-27,914
-27,407
-27,004
-26,707
-26,516
-26,432
-26,455
-26,585
-26,821
-27,162
-27,605
-28,148
-28,79
-29,526
-30,353
-31,268
-32,266
-33,342
-34,494
-35,715
-37,002
-38,349
-39,753
-41,206
-42,705
-44,244
-45,818
-47,419
-49,044
-50,685
-52,338
-53,996
-55,654
-57,306
-58,948
-60,573
-62,178
-63,757
-65,307
-66,822
-68,298
-69,733
-71,122
-72,463
-73,752
-74,988
-76,169
-77,292
-78,355
-79,357
-80,297
-81,171
-81,978
-82,717
-83,384
-83,979
-84,5
-84,946
-85,317
-85,613
-85,833
-85,98
-86,054
-86,054
-85,983
-85,839
-85,621
-85,33
-84,964
-84,523
-84,004
-83,407
-82,73
-81,974
-81,137
-80,221
-79,222
-78,135
-76,96
-75,698
-74,351
-72,925
-71,425
-69,859
-68,237
-66,578
-64,895
-63,204
-61,517
-59,838
-58,17
-56,517
-54,885
-53,281
-51,707
-50,157
-48,62
-47,091
-45,561
-44,023
-42,465
-40,857
-39,176
-37,406
-35,54
-33,586
-31,561
-29,48
-27,364
-25,239
-23,142
-21,127
-19,256
-17,574
-16,124
-14,947
-14,089
-13,618
-13,597
-14,076
-15,088
-16,65
-18,762
-21,421
-24,614
-28,3
-32,415
-36,876
-41,585
-46,459
-51,429
-56,422
-61,36
-66,146
-70,674
-74,856
-78,621
-81,913
-84,688
-86,924
-88,612
-89,787
-90,523
-90,898
-91,02
-90,997
-90,926
-90,928
-91,128
-91,637
-92,611
-94,238
-96,629
-99,824
-103,732
-108,073
-112,548
-116,882
-120,694
-123,551
-125,132
-125,283
-124,288
-122,884
-121,836
-121,783
-123,221
-126,492
-131,728
-138,642
-146,061
-151,967
-153,994
-149,746
-137,27
-114,943
-81,344
-35,774
21,295
88,177
162,007
239,216
316,37
389,816
455,526
509,849
549,641
572,563
577,815
565,514
536,047
490,767
431,945
362,291
285,336
204,872
124,025
45,977
-25,95
-89,119
-141,272
-180,716
-207,02
-220,382
-221,356
-211,545
-193,224
-168,857
-141,441
-113,873
-88,406
-67,143
-51,519
-41,874
-37,967
-38,991
-43,436
-49,709
-56,285
-61,469
-64,172
-64,02
-60,932
-55,289
-47,84
-39,342
-30,658
-22,797
-16,346
-11,514
-8,366
-6,71
-6,269
-6,805
-7,97
-9,346
-10,672
-11,811
-12,686
-13,311
-13,668
-13,712
-13,443
-12,879
-12,029
-10,908
-9,521
-7,859
-5,943
-3,8
-1,456
1,042
3,659
6,373
9,158
12,001
14,886
17,8
20,744
23,727
26,764
29,891
33,149
36,58
40,248
44,202
48,49
53,182
58,332
63,986
70,186
76,951
84,295
92,228
100,74
109,807
119,39
129,429
139,857
150,603
161,578
172,7
183,891
195,057
206,117
217,004
227,655
238,026
248,079
257,786
267,14
276,159
284,879
293,346
301,606
309,705
317,692
325,617
333,514
341,411
349,322
357,241
365,157
373,051
380,89
388,625
396,177
403,429
410,244
416,481
421,995
426,646
430,295
432,799
434,039
433,924
432,375
429,337
424,754
418,568
410,744
401,275
390,186
377,556
363,496
348,128
331,604
314,083
295,737
276,759
257,319
237,572
217,674
197,774
178,033
158,639
139,762
121,553
104,153
87,652
72,113
57,582
44,066
31,553
20,015
9,403
-0,326
-9,208
-17,29
-24,627
-31,285
-37,364
-42,962
-48,175
-53,106
-57,834
-62,411
-66,884
-71,268
-75,566
-79,774
-83,874
-87,851
-91,693
-95,385
-98,91
-102,248
-105,363
-108,216
-110,769
-112,97
-114,788
-116,207
-117,217
-117,826
-118,051
-117,913
-117,439
-116,664
-115,617
-114,33
-112,833
-111,153
-109,323
-107,38
-105,362
-103,31
-101,26
-99,238
-97,269
-95,373
-93,562
-91,85
-90,245
-88,749
-87,368
-86,105
-84,965
-83,954
-83,076
-82,331
-81,719
-81,238
-80,885
-80,659
-80,558
-80,576
-80,711
-80,957
-81,312
-81,769
-82,325
-82,972
-83,702
-84,508
-85,38
-86,31
-87,288
-88,306
-89,354
-90,422
-91,504
-92,59
-93,673
-94,746
-95,801
-96,833
-97,836
-98,804
-99,733
-100,618
-101,455
-102,242
-102,976
-103,653
-104,274
-104,837
-105,341
-105,786
-106,174
-106,505
-106,781
-107,005
-107,178
-107,305
-107,387
-107,43
-107,438
-107,415
-107,367
-107,298
-107,215
-107,121
-107,024
-106,927
-106,836
-106,756
-106,691
-106,647
-106,626
-106,633
-106,671
-106,744
-106,855
-107,006
-107,2
-107,438
-107,723
-108,055
-108,436
-108,866
-109,345
-109,873
-110,451
-111,076
-111,748
-112,465
-113,225
-114,026
-114,865
-115,737
-116,641
-117,571
-118,524
-119,495
-120,479
-121,472
-122,469
-123,465
-124,455
-125,436
-126,402
-127,351
-128,277
-129,177
-130,048
-130,887
-131,69
-132,456
-133,182
-133,866
-134,507
-135,103
-135,654
-136,16
-136,619
-137,034
-137,405
-137,734
-138,023
-138,273
-138,488
-138,671
-138,825
-138,956
-139,066
-139,162
-139,249
-139,331
-139,415
-139,507
-139,612
-139,735
-139,882
-140,059
-140,268
-140,516
-140,807
-141,143
-141,528
-141,965
-142,456
-143,004
-143,608
-144,271
-144,99
-145,765
-146,593
-147,472
-148,397
-149,364
-150,366
-151,399
-152,455
-153,528
-154,61
-155,692
-156,767
-157,825
-158,857
-159,85
-160,793
-161,672
-162,474
-163,185
-163,792
-164,282
-164,642
-164,86
-164,925
-164,828
-164,559
-164,108
-163,463
-162,612
-161,544
-160,254
-158,736
-156,991
-155,022
-152,835
-150,441
-147,851
-145,073
-142,113
-138,972
-135,648
-132,137
-128,435
-124,547
-120,483
-116,253
-111,866
-107,331
-102,654
-97,835
-92,869
-87,748
-82,46
-77,003
-71,384
-65,627
-59,768
-53,853
-47,934
-42,058
-36,264
-30,587
-25,059
-19,716
-14,591
-9,728
-5,171
-0,972
2,81
6,13
8,953
11,262
13,063
14,376
15,238
15,68
15,727
15,4
14,719
13,703
12,372
10,754
8,868
6,743
4,421
1,935
-0,682
-3,405
-6,223
-9,136
-12,141
-15,235
-18,403
-21,621
-24,866
-28,103
-31,305
-34,446
-37,485
-40,389
-43,126
-45,641
-47,902
-49,904
-51,64
-53,139
-54,419
-55,436
-56,254
-57,04
-57,944
-59,171
-60,815
-62,761
-65,07
-67,997
-71,549
-75,565
-79,712
-83,292
-85,955
-87,866
-88,88
-88,627
-87,027
-84,17
-80,737
-78,197
-77,56
-79,073
-83,043
-89,748
-99,131
-110,81
-123,288
-133,799
-139,544
-138,272
-128,01
-106,78
-72,996
-25,809
34,497
104,945
181,509
261,46
341,098
418,017
489,935
549,749
592,089
611,99
604,934
574,471
524,506
459,284
385,328
304,522
219,191
133,183
48,963
-29,063
-96,78
-152,12
-193,515
-220,867
-235,168
-237,306
-228,62
-211,168
-187,272
-159,512
-130,462
-101,858
-75,027
-51,401
-32,074
-17,69
-8,329
-3,296
-1,569
-2,474
-5,294
-9,027
-12,654
-15,119
-15,816
-14,827
-12,468
-9,004
-4,77
-0,185
4,225
7,773
10,078
11,169
11,212
10,476
9,249
7,762
6,31
5,279
4,907
5,288
6,456
8,347
10,906
14,117
17,926
22,247
27,018
32,176
37,658
43,426
49,413
55,531
61,709
67,877
73,971
79,948
85,764
91,372
96,755
101,904
106,813
111,496
115,961
120,216
124,292
128,221
132,047
135,835
139,647
143,541
147,593
151,866
156,423
161,331
166,625
172,32
178,432
184,961
191,906
199,269
207,027
215,148
223,596
232,311
241,233
250,299
259,418
268,51
277,503
286,331
294,957
303,369
311,554
319,501
327,207
334,656
341,843
348,76
355,393
361,733
367,772
373,503
378,937
384,081
388,92
393,428
397,552
401,211
404,32
406,794
408,539
409,47
409,518
408,628
406,769
403,917
400,05
395,15
389,193
382,16
374,047
364,857
354,619
343,39
331,246
318,286
304,625
290,388
275,683
260,603
245,233
229,648
213,929
198,163
182,442
166,862
151,528
136,558
122,061
108,135
94,846
82,229
70,298
59,047
48,479
38,594
29,395
20,882
13,046
5,871
-0,668
-6,6
-11,983
-16,897
-21,431
-25,677
-29,704
-33,553
-37,254
-40,822
-44,27
-47,608
-50,841
-53,972
-57,001
-59,929
-62,757
-65,485
-68,094
-70,551
-72,818
-74,847
-76,608
-78,087
-79,276
-80,176
-80,795
-81,143
-81,238
-81,104
-80,76
-80,223
-79,508
-78,628
-77,603
-76,457
-75,219
-73,917
-72,578
-71,218
-69,856
-68,505
-67,173
-65,869
-64,596
-63,354
-62,145
-60,972
-59,84
-58,755
-57,72
-56,737
-55,81
-54,938
-54,125
-53,369
-52,674
-52,038
-51,464
-50,951
-50,502
-50,116
-49,797
-49,542
-49,351
-49,224
-49,157
-49,15
-49,2
-49,304
-49,46
-49,665
-49,915
-50,21
-50,545
-50,918
-51,326
-51,767
-52,237
-52,733
-53,253
-53,792
-54,347
-54,916
-55,496
-56,083
-56,676
-57,271
-57,868
-58,464
-59,058
-59,65
-60,237
-60,82
-61,399
-61,972
-62,542
-63,108
-63,672
-64,236
-64,8
-65,366
-65,937
-66,513
-67,098
-67,692
-68,297
-68,916
-69,55
-70,201
-70,871
-71,563
-72,279
-73,021
-73,791
-74,59
-75,421
-76,284
-77,18
-78,11
-79,072
-80,067
-81,095
-82,154
-83,242
-84,358
-85,5
-86,665
-87,848
-89,047
-90,257
-91,473
-92,692
-93,908
-95,117
-96,315
-97,499
-98,663
-99,805
-100,922
-102,009
-103,064
-104,082
-105,06
-105,993
-106,877
-107,71
-108,486
-109,203
-109,861
-110,456
-110,991
-111,467
-111,883
-112,242
-112,544
-112,791
-112,985
-113,128
-113,22
-113,265
-113,265
-113,226
-113,159
-113,07
-112,962
-112,836
-112,69
-112,52
-112,321
-112,089
-111,814
-111,494
-111,127
-110,718
-110,281
-109,829
-109,371
-108,909
-108,44
-107,958
-107,47
-106,983
-106,504
-106,05
-105,635
-105,275
-104,997
-104,82
-104,744
-104,76
-104,837
-104,936
-105,031
-105,105
-105,143
-105,137
-105,069
-104,92
-104,676
-104,314
-103,81
-103,138
-102,251
-101,118
-99,73
-98,095
-96,246
-94,23
-92,079
-89,822
-87,484
-85,085
-82,648
-80,199
-77,751
-75,325
-72,948
-70,653
-68,49
-66,503
-64,713
-63,133
-61,756
-60,564
-59,545
-58,696
-58,005
-57,473
-57,099
-56,885
-56,841
-56,979
-57,3
-57,803
-58,474
-59,297
-60,267
-61,379
-62,638
-64,056
-65,644
-67,407
-69,355
-71,489
-73,803
-76,285
-78,91
-81,644
-84,451
-87,296
-90,144
-92,965
-95,726
-98,394
-100,929
-103,286
-105,413
-107,261
-108,783
-109,938
-110,704
-111,078
-111,075
-110,74
-110,126
-109,279
-108,264
-107,156
-106,025
-104,971
-104,091
-103,463
-103,212
-103,495
-104,406
-105,97
-108,071
-110,421
-112,711
-114,665
-115,935
-116,142
-115,02
-112,464
-108,775
-104,658
-100,82
-97,826
-96,09
-95,881
-97,249
-99,871
-102,66
-103,78
-101,159
-92,767
-76,976
-52,462
-18,091
26,662
81,328
144,384
213,342
285,144
356,833
425,23
486,736
537,992
576,007
598,424
604,216
593,185
565,404
521,916
464,834
396,816
321,409
242,553
163,476
87,35
17,517
-43,433
-93,606
-131,731
-157,863
-172,794
-177,135
-172,137
-159,82
-142,267
-121,721
-100,335
-79,489
-60,299
-44,191
-32,162
-24,439
-20,792
-20,499
-22,629
-26,519
-31,463
-36,311
-39,939
-41,722
-41,46
-39,372
-35,909
-31,422
-26,284
-21,148
-16,751
-13,551
-11,743
-11,27
-11,89
-13,39
-15,584
-18,186
-20,868
-23,411
-25,672
-27,577
-29,136
-30,34
-31,151
-31,559
-31,55
-31,088
-30,155
-28,74
-26,836
-24,464
-21,65
-18,414
-14,782
-10,778
-6,425
-1,754
3,214
8,463
13,973
19,719
25,668
31,774
38,007
44,358
50,821
57,403
64,114
70,959
77,947
85,09
92,393
99,86
107,485
115,253
123,146
131,149
139,251
147,448
155,735
164,097
172,512
180,956
189,397
197,81
206,173
214,459
222,647
230,721
238,674
246,521
254,294
262,022
269,728
277,428
285,124
292,823
300,536
308,264
315,997
323,717
331,388
338,982
346,473
353,818
360,961
367,811
374,238
380,118
385,334
389,766
393,307
395,842
397,247
397,431
396,328
393,887
390,076
384,85
378,153
369,961
360,274
349,13
336,616
322,821
307,845
291,815
274,873
257,185
238,94
220,3
201,405
182,398
163,42
144,636
126,237
108,387
91,233
74,902
59,492
45,096
31,792
19,613
8,563
-1,381
-10,269
-18,143
-25,032
-30,983
-36,053
-40,322
-43,891
-46,854
-49,294
-51,295
-52,939
-54,307
-55,472
-56,486
-57,375
-58,151
-58,819
-59,382
-59,852
-60,237
-60,538
-60,757
-60,892
-60,949
-60,946
-60,907
-60,85
-60,793
-60,751
-60,738
-60,782
-60,91
-61,149
-61,524
-62,057
-62,758
-63,637
-64,696
-65,924
-67,302
-68,792
-70,338
-71,892
-73,407
-74,843
-76,174
-77,374
-78,417
-79,282
-79,951
-80,406
-80,641
-80,652
-80,434
-79,996
-79,353
-78,534
-77,593
-76,58
-75,537
-74,494
-73,467
-72,463
-71,489
-70,55
-69,641
-68,755
-67,883
-67,01
-66,136
-65,256
-64,359
-63,423
-62,408
-61,262
-59,95
-58,456
-56,776
-54,913
-52,876
-50,67
-48,322
-45,871
-43,36
-40,833
-38,321
-35,845
-33,44
-31,152
-29,044
-27,197
-25,668
-24,491
-23,694
-23,299
-23,327
-23,805
-24,726
-26,054
-27,746
-29,759
-32,059
-34,62
-37,398
-40,329
-43,332
-46,32
-49,227
-52,008
-54,623
-57,023
-59,159
-60,974
-62,444
-63,58
-64,399
-64,916
-65,142
-65,088
-64,786
-64,291
-63,671
-62,986
-62,275
-61,566
-60,887
-60,275
-59,77
-59,416
-59,234
-59,225
-59,387
-59,721
-60,227
-60,901
-61,721
-62,647
-63,635
-64,651
-65,675
-66,692
-67,687
-68,64
-69,529
-70,335
-71,049
-71,668
-72,185
-72,594
-72,889
-73,069
-73,143
-73,127
-73,037
-72,886
-72,678
-72,419
-72,112
-71,761
-71,369
-70,939
-70,47
-69,962
-69,421
-68,851
-68,258
-67,649
-67,027
-66,396
-65,761
-65,125
-64,495
-63,879
-63,287
-62,733
-62,227
-61,775
-61,386
-61,065
-60,815
-60,635
-60,522
-60,463
-60,453
-60,489
-60,567
-60,691
-60,857
-61,06
-61,295
-61,558
-61,85
-62,178
-62,55
-62,977
-63,478
-64,08
-64,813
-65,718
-66,82
-68,127
-69,647
-71,377
-73,317
-75,469
-77,827
-80,374
-83,091
-85,954
-88,925
-91,966
-95,012
-97,981
-100,789
-103,348
-105,587
-107,457
-108,911
-109,905
-110,403
-110,368
-109,773
-108,603
-106,842
-104,471
-101,496
-97,938
-93,85
-89,315
-84,412
-79,221
-73,82
-68,274
-62,656
-57,043
-51,509
-46,12
-40,953
-36,081
-31,587
-27,561
-24,068
-21,148
-18,823
-17,087
-15,942
-15,395
-15,442
-16,067
-17,244
-18,933
-21,099
-23,709
-26,708
-30,02
-33,56
-37,227
-40,944
-44,65
-48,283
-51,78
-55,062
-58,035
-60,628
-62,788
-64,474
-65,653
-66,29
-66,351
-65,838
-64,788
-63,268
-61,358
-59,127
-56,631
-53,94
-51,169
-48,472
-46,026
-44,004
-42,556
-41,807
-41,915
-43,094
-45,48
-49,103
-53,818
-59,269
-65,112
-71,09
-76,885
-82,116
-86,482
-89,805
-92,364
-94,947
-98,283
-102,945
-109,32
-117,554
-127,686
-139,422
-151,47
-161,708
-167,876
-167,651
-159,229
-141,307
-112,47
-71,916
-20,294
40,691
108,492
179,801
251,694
321,217
384,48
437,826
478,484
504,249
514,085
507,988
485,687
447,637
395,883
332,94
261,817
186,027
108,478
31,924
-39,997
-104,093
-158,135
-200,231
-229,665
-246,575
-250,913
-243,469
-226,497
-202,522
-174,311
-145,003
-116,879
-91,927
-72,518
-59,972
-54,363
-55,285
-61,53
-71,301
-83,209
-95,657
-106,563
-114,651
-119,356
-120,431
-118,315
-113,753
-107,297
-99,775
-92,299
-85,486
-79,648
-74,938
-71,143
-68,031
-65,486
-63,238
-60,951
-58,498
-55,836
-52,998
-50,146
-47,369
-44,712
-42,254
-40,051
-38,134
-36,526
-35,202
-34,112
-33,222
-32,482
-31,851
-31,297
-30,745
-30,127
-29,389
-28,466
-27,321
-25,927
-24,253
-22,285
-20,018
-17,438
-14,54
-11,322
-7,759
-3,844
0,434
5,095
10,132
15,536
21,311
27,445
33,929
40,77
47,967
55,534
63,506
71,895
80,7
89,916
99,506
109,438
119,686
130,202
140,954
151,915
163,054
174,371
185,882
197,587
209,479
221,534
233,695
245,929
258,217
270,528
282,849
295,153
307,403
319,575
331,644
343,558
355,248
366,6
377,457
387,677
397,122
405,661
413,187
419,575
424,69
428,43
430,704
431,432
430,552
427,986
423,663
417,556
409,674
400,074
388,874
376,198
362,186
347,005
330,824
313,838
296,257
278,258
260,012
241,694
223,48
205,566
188,152
171,402
155,461
140,442
126,414
113,426
101,501
90,62
80,748
71,829
63,791
56,581
50,141
44,399
39,275
34,668
30,468
26,576
22,895
19,33
15,809
12,281
8,711
5,1
1,456
-2,208
-5,865
-9,497
-13,084
-16,598
-20,012
-23,291
-26,397
-29,292
-31,934
-34,28
-36,296
-37,969
-39,293
-40,28
-40,95
-41,32
-41,419
-41,276
-40,92
-40,382
-39,69
-38,869
-37,947
-36,956
-35,927
-34,895
-33,887
-32,924
-32,023
-31,195
-30,449
-29,793
-29,229
-28,756
-28,375
-28,086
-27,89
-27,79
-27,786
-27,876
-28,057
-28,326
-28,68
-29,116
-29,633
-30,225
-30,891
-31,627
-32,431
-33,3
-34,23
-35,216
-36,255
-37,34
-38,467
-39,63
-40,824
-42,045
-43,286
-44,544
-45,813
-47,09
-48,371
-49,651
-50,926
-52,193
-53,449
-54,691
-55,917
-57,126
-58,314
-59,483
-60,632
-61,759
-62,866
-63,951
-65,014
-66,054
-67,072
-68,066
-69,036
-69,98
-70,901
-71,799
-72,677
-73,537
-74,382
-75,216
-76,041
-76,86
-77,676
-78,49
-79,302
-80,112
-80,923
-81,739
-82,566
-83,406
-84,26
-85,128
-86,008
-86,894
-87,778
-88,646
-89,482
-90,275
-91,019
-91,714
-92,366
-92,977
-93,554
-94,105
-94,629
-95,129
-95,61
-96,07
-96,512
-96,949
-97,396
-97,882
-98,441
-99,091
-99,84
-100,689
-101,619
-102,61
-103,636
-104,655
-105,635
-106,553
-107,382
-108,109
-108,719
-109,185
-109,475
-109,548
-109,349
-108,847
-108,021
-106,86
-105,376
-103,589
-101,534
-99,268
-96,84
-94,286
-91,644
-88,934
-86,177
-83,405
-80,65
-77,95
-75,355
-72,9
-70,615
-68,524
-66,636
-64,948
-63,447
-62,098
-60,874
-59,757
-58,732
-57,795
-56,946
-56,177
-55,483
-54,861
-54,301
-53,794
-53,335
-52,913
-52,527
-52,181
-51,884
-51,652
-51,499
-51,432
-51,454
-51,567
-51,768
-52,055
-52,423
-52,866
-53,378
-53,956
-54,6
-55,308
-56,08
-56,91
-57,796
-58,733
-59,718
-60,75
-61,829
-62,947
-64,1
-65,284
-66,491
-67,714
-68,945
-70,165
-71,361
-72,523
-73,642
-74,711
-75,724
-76,667
-77,533
-78,314
-79,009
-79,624
-80,171
-80,66
-81,114
-81,56
-82,03
-82,562
-83,185
-83,915
-84,766
-85,748
-86,868
-88,144
-89,58
-91,181
-92,939
-94,837
-96,845
-98,924
-101,019
-103,054
-104,956
-106,65
-108,074
-109,181
-109,926
-110,268
-110,165
-109,572
-108,449
-106,756
-104,462
-101,549
-98,024
-93,916
-89,285
-84,221
-78,81
-73,141
-67,299
-61,356
-55,392
-49,492
-43,744
-38,241
-33,089
-28,402
-24,299
-20,893
-18,265
-16,462
-15,502
-15,366
-16,034
-17,484
-19,685
-22,614
-26,234
-30,496
-35,347
-40,725
-46,54
-52,682
-59,019
-65,406
-71,72
-77,864
-83,757
-89,346
-94,578
-99,399
-103,761
-107,61
-110,897
-113,581
-115,627
-117,014
-117,751
-117,871
-117,434
-116,527
-115,238
-113,658
-111,888
-110,02
-108,156
-106,388
-104,83
-103,652
-102,98
-102,885
-103,348
-104,186
-105,166
-106,085
-106,649
-106,472
-105,294
-102,948
-99,553
-95,735
-92,167
-89,455
-88,269
-89,076
-92,073
-97,248
-103,871
-110,271
-114,53
-114,494
-107,873
-92,867
-67,855
-31,486
16,463
75,041
142,531
216,191
292,728
368,89
440,782
504,226
555,686
592,121
611,302
612,314
594,792
558,994
506,658
440,518
363,939
281,087
196,025
112,428
34,381
-34,451
-91,516
-134,968
-164,215
-179,852
-182,673
-174,118
-156,84
-133,643
-107,264
-80,56
-55,462
-33,424
-16,139
-4,428
1,951
3,532
1,336
-3,244
-9,321
-15,877
-21,412
-25,092
-26,664
-26,09
-23,841
-20,56
-16,621
-12,605
-9,358
-7,308
-6,622
-7,308
-9,04
-11,464
-14,317
-17,23
-19,79
-21,755
-22,966
-23,331
-22,884
-21,645
-19,627
-16,894
-13,515
-9,545
-5,042
-0,062
5,338
11,079
17,071
23,24
29,53
35,899
42,312
48,734
55,14
61,52
67,885
74,243
80,596
86,937
93,258
99,551
105,81
112,023
118,163
124,205
130,119
135,884
141,49
146,927
152,185
157,247
162,091
166,699
171,067
175,202
179,127
182,882
186,517
190,107
193,752
197,548
201,592
205,966
210,729
215,928
221,609
227,809
234,574
241,954
249,987
258,696
268,085
278,13
288,789
299,984
311,61
323,543
335,645
347,779
359,83
371,69
383,258
394,433
405,099
415,115
424,338
432,629
439,857
445,907
450,673
454,074
456,048
456,57
455,647
453,292
449,513
444,309
437,68
429,625
420,173
409,385
397,34
384,139
369,895
354,735
338,807
322,257
305,235
287,866
270,25
252,486
234,684
216,963
199,456
182,309
165,644
149,572
134,196
119,587
105,795
92,844
80,727
69,42
58,891
49,113
40,071
31,745
24,1
17,093
10,666
4,739
-0,763
-5,922
-10,828
-15,548
-20,131
-24,609
-28,988
-33,264
-37,429
-41,474
-45,39
-49,171
-52,806
-56,28
-59,58
-62,677
-65,541
-68,138
-70,421
-72,362
-73,946
-75,166
-76,033
-76,561
-76,769
-76,679
-76,323
-75,723
-74,907
-73,9
-72,722
-71,4
-69,962
-68,44
-66,87
-65,281
-63,694
-62,129
-60,601
-59,119
-57,694
-56,331
-55,03
-53,792
-52,622
-51,52
-50,492
-49,54
-48,664
-47,863
-47,136
-46,481
-45,896
-45,38
-44,93
-44,546
-44,224
-43,963
-43,763
-43,622
-43,536
-43,504
-43,521
-43,585
-43,692
-43,839
-44,022
-44,238
-44,483
-44,755
-45,052
-45,371
-45,71
-46,067
-46,442
-46,832
-47,238
-47,659
-48,094
-48,543
-49,007
-49,485
-49,979
-50,49
-51,017
-51,564
-52,13
-52,718
-53,329
-53,965
-54,628
-55,319
-56,04
-56,793
-57,58
-58,403
-59,263
-60,162
-61,103
-62,087
-63,116
-64,191
-65,313
-66,483
-67,703
-68,972
-70,291
-71,66
-73,079
-74,547
-76,064
-77,628
-79,238
-80,893
-82,591
-84,329
-86,105
-87,917
-89,762
-91,636
-93,537
-95,46
-97,403
-99,362
-101,332
-103,31
-105,292
-107,274
-109,25
-111,217
-113,169
-115,103
-117,014
-118,898
-120,749
-122,564
-124,339
-126,069
-127,752
-129,382
-130,958
-132,475
-133,932
-135,325
-136,652
-137,912
-139,102
-140,222
-141,27
-142,246
-143,148
-143,977
-144,732
-145,413
-146,021
-146,556
-147,019
-147,411
-147,732
-147,985
-148,169
-148,287
-148,341
-148,331
-148,26
-148,128
-147,939
-147,694
-147,394
-147,042
-146,639
-146,187
-145,687
-145,142
-144,552
-143,918
-143,243
-142,528
-141,773
-140,979
-140,149
-139,282
-138,38
-137,443
-136,474
-135,472
-134,439
-133,376
-132,285
-131,166
-130,021
-128,853
-127,662
-126,452
-125,224
-123,982
-122,727
-121,464
-120,195
-118,923
-117,651
-116,383
-115,122
-113,871
-112,635
-111,415
-110,216
-109,042
-107,896
-106,78
-105,699
-104,656
-103,653
-102,694
-101,782
-100,919
-100,109
-99,353
-98,654
-98,014
-97,435
-96,917
-96,461
-96,067
-95,734
-95,46
-95,242
-95,076
-94,96
-94,888
-94,856
-94,86
-94,894
-94,952
-95,032
-95,126
-95,231
-95,339
-95,445
-95,54
-95,619
-95,675
-95,701
-95,689
-95,632
-95,522
-95,353
-95,119
-94,812
-94,423
-93,937
-93,347
-92,647
-91,835
-90,909
-89,871
-88,727
-87,487
-86,167
-84,785
-83,354
-81,886
-80,385
-78,861
-77,325
-75,792
-74,278
-72,795
-71,341
-69,913
-68,507
-67,109
-65,7
-64,25
-62,708
-61,039
-59,221
-57,242
-55,108
-52,824
-50,392
-47,819
-45,118
-42,312
-39,446
-36,564
-33,715
-30,967
-28,401
-26,119
-24,245
-22,878
-22,087
-21,926
-22,425
-23,612
-25,518
-28,157
-31,528
-35,617
-40,395
-45,823
-51,86
-58,427
-65,409
-72,673
-80,061
-87,448
-94,755
-101,893
-108,776
-115,306
-121,367
-126,875
-131,793
-136,062
-139,603
-142,398
-144,461
-145,925
-147,068
-148,067
-148,983
-149,856
-150,675
-151,393
-151,995
-152,286
-151,884
-150,673
-148,788
-146,459
-144,041
-141,801
-139,85
-138,451
-138,003
-138,58
-140,01
-142,036
-144,363
-146,939
-149,919
-153,371
-157,23
-161,483
-166,069
-170,671
-174,543
-176,371
-174,414
-166,701
-151,283
-126,363
-90,386
-42,486
17,23
87,631
166,453
250,504
336,014
418,734
494,056
557,683
605,841
635,537
645,181
634,227
603,069
553,42
488,054
410,415
324,726
235,42
146,45
61,881
-14,487
-79,827
-131,909
-169,382
-192,141
-200,632
-195,884
-180,148
-156,213
-126,943
-95,58
-65,001
-37,508
-15,372
0,005
8,475
10,484
7,075
-0,086
-9,411
-19,272
-27,737
-33,59
-36,399
-36,064
-33,03
-28,071
-21,888
-15,346
-9,508
-4,97
-1,943
-0,46
-0,231
-0,881
-2,079
-3,387
-4,33
-4,631
-4,16
-2,865
-0,814
1,933
5,313
9,205
13,485
18,061
22,866
27,852
32,964
38,114
43,189
48,097
52,765
57,138
61,165
64,799
68,013
70,811
73,25
75,403
77,333
79,092
80,72
82,257
83,761
85,299
86,94
88,749
90,796
93,151
95,904
99,155
102,987
107,457
112,579
118,344
124,739
131,748
139,359
147,552
156,301
165,569
175,318
185,504
196,064
206,93
218,009
229,19
240,36
251,419
262,297
272,962
283,4
293,603
303,566
313,283
322,751
331,969
340,934
349,637
358,072
366,225
374,093
381,691
389,037
396,149
403,009
409,559
415,708
421,358
426,409
430,755
434,294
436,915
438,525
439,052
438,442
436,657
433,66
429,402
423,836
416,914
408,624
398,99
388,076
375,964
362,758
348,575
333,55
317,836
301,572
284,88
267,872
250,653
233,337
216,05
198,929
182,12
165,758
149,961
134,818
120,393
106,727
93,835
81,712
70,334
59,678
49,729
40,47
31,882
23,935
16,586
9,775
3,426
-2,546
-8,233
-13,706
-19,018
-24,204
-29,283
-34,258
-39,125
-43,875
-48,497
-52,982
-57,322
-61,507
-65,525
-69,353
-72,958
-76,298
-79,326
-82,005
-84,317
-86,25
-87,805
-88,99
-89,819
-90,312
-90,498
-90,401
-90,044
-89,449
-88,636
-87,629
-86,457
-85,152
-83,749
-82,276
-80,758
-79,215
-77,661
-76,112
-74,577
-73,062
-71,569
-70,102
-68,665
-67,265
-65,906
-64,593
-63,329
-62,116
-60,956
-59,848
-58,796
-57,8
-56,86
-55,976
-55,15
-54,381
-53,672
-53,022
-52,43
-51,895
-51,416
-50,99
-50,616
-50,291
-50,015
-49,784
-49,597
-49,453
-49,35
-49,288
-49,265
-49,279
-49,33
-49,417
-49,539
-49,694
-49,882
-50,102
-50,351
-50,63
-50,936
-51,268
-51,624
-52,004
-52,406
-52,828
-53,269
-53,727
-54,202
-54,691
-55,193
-55,706
-56,228
-56,756
-57,289
-57,823
-58,356
-58,885
-59,407
-59,918
-60,414
-60,893
-61,35
-61,783
-62,188
-62,562
-62,9
-63,202
-63,463
-63,681
-63,855
-63,981
-64,059
-64,088
-64,066
-63,993
-63,868
-63,691
-63,463
-63,184
-62,855
-62,476
-62,05
-61,577
-61,061
-60,503
-59,908
-59,278
-58,617
-57,93
-57,22
-56,493
-55,754
-55,007
-54,258
-53,512
-52,774
-52,049
-51,343
-50,661
-50,009
-49,39
-48,809
-48,271
-47,78
-47,34
-46,953
-46,623
-46,353
-46,146
-46,003
-45,926
-45,918
-45,98
-46,112
-46,314
-46,588
-46,932
-47,346
-47,828
-48,376
-48,989
-49,665
-50,399
-51,19
-52,035
-52,929
-53,869
-54,851
-55,87
-56,923
-58,005
-59,11
-60,236
-61,376
-62,526
-63,681
-64,838
-65,992
-67,137
-68,271
-69,388
-70,485
-71,557
-72,602
-73,614
-74,593
-75,533
-76,433
-77,29
-78,103
-78,869
-79,587
-80,256
-80,875
-81,443
-81,96
-82,426
-82,842
-83,208
-83,524
-83,793
-84,016
-84,194
-84,329
-84,425
-84,484
-84,508
-84,501
-84,466
-84,408
-84,328
-84,233
-84,124
-84,007
-83,886
-83,763
-83,643
-83,528
-83,423
-83,331
-83,255
-83,197
-83,16
-83,148
-83,161
-83,202
-83,274
-83,376
-83,51
-83,677
-83,877
-84,11
-84,376
-84,673
-85,001
-85,358
-85,741
-86,149
-86,578
-87,023
-87,482
-87,949
-88,419
-88,886
-89,344
-89,788
-90,211
-90,609
-90,977
-91,309
-91,602
-91,85
-92,049
-92,194
-92,278
-92,297
-92,243
-92,112
-91,897
-91,596
-91,205
-90,721
-90,142
-89,469
-88,703
-87,841
-86,884
-85,827
-84,669
-83,413
-82,067
-80,639
-79,145
-77,598
-76,011
-74,404
-72,794
-71,193
-69,61
-68,043
-66,491
-64,961
-63,463
-62,015
-60,636
-59,33
-58,101
-56,953
-55,879
-54,878
-53,944
-53,054
-52,198
-51,379
-50,611
-49,928
-49,369
-48,958
-48,709
-48,628
-48,721
-49,007
-49,504
-50,222
-51,181
-52,392
-53,874
-55,66
-57,764
-60,174
-62,856
-65,747
-68,77
-71,862
-74,97
-78,046
-81,047
-83,92
-86,6
-89,018
-91,112
-92,846
-94,184
-95,11
-95,601
-95,602
-95,175
-94,493
-93,739
-93,131
-92,771
-92,569
-92,578
-93,045
-93,995
-95,294
-96,681
-97,561
-97,672
-97,235
-96,172
-94,161
-91,155
-87,194
-82,736
-79,021
-76,815
-76,24
-77,668
-81,361
-87,271
-95,254
-104,249
-111,98
-116,337
-115,4
-107,04
-89,613
-61,62
-21,719
30,118
92,553
163,65
240,587
319,981
398,531
472,262
536,898
588,924
625,402
644,191
644,485
626,006
589,054
535,406
467,758
389,384
304,351
216,613
129,78
47,983
-24,98
-86,355
-133,984
-166,954
-185,543
-190,225
-182,279
-164,394
-139,565
-110,879
-81,634
-54,183
-30,376
-12,266
-0,853
4,109
3,318
-1,842
-9,541
-18,484
-27,3
-34,234
-38,333
-39,33
-37,264
-32,815
-26,893
-20,13
-13,337
-7,511
-3,16
-0,501
0,424
-0,071
-1,639
-4,015
-6,814
-9,616
-12,186
-14,369
-16,069
-17,28
-17,959
-18,051
-17,561
-16,502
-14,877
-12,689
-9,935
-6,619
-2,786
1,504
6,194
11,237
16,6
22,25
28,134
34,189
40,35
46,564
52,787
58,968
65,044
70,958
76,668
82,16
87,446
92,539
97,449
102,185
106,755
111,175
115,475
119,69
123,854
128,01
132,209
136,53
141,078
145,954
151,244
157,01
163,28
170,081
177,436
185,359
193,856
202,925
212,554
222,735
233,464
244,72
256,467
268,635
281,117
293,804
306,585
319,367
332,078
344,648
357
369,062
380,769
392,056
402,862
413,111
422,705
431,552
439,563
446,667
452,82
457,98
462,104
465,149
467,056
467,78
467,295
465,574
462,593
458,333
452,772
445,904
437,762
428,39
417,846
406,201
393,528
379,915
365,472
350,314
334,573
318,371
301,816
285,018
268,097
251,175
234,388
217,876
201,753
186,126
171,096
156,738
143,108
130,243
118,146
106,807
96,207
86,327
77,152
68,666
60,835
53,62
46,967
40,804
35,062
29,669
24,542
19,619
14,856
10,223
5,714
1,331
-2,92
-7,033
-11
-14,82
-18,481
-21,973
-25,285
-28,394
-31,275
-33,897
-36,221
-38,223
-39,892
-41,226
-42,237
-42,945
-43,369
-43,535
-43,474
-43,215
-42,784
-42,209
-41,512
-40,722
-39,868
-38,984
-38,106
-37,264
-36,482
-35,782
-35,178
-34,684
-34,31
-34,061
-33,941
-33,95
-34,091
-34,367
-34,782
-35,337
-36,03
-36,86
-37,822
-38,912
-40,127
-41,46
-42,907
-44,46
-46,114
-47,862
-49,699
-51,618
-53,611
-55,67
-57,786
-59,951
-62,154
-64,388
-66,642
-68,907
-71,175
-73,437
-75,686
-77,912
-80,109
-82,271
-84,389
-86,46
-88,476
-90,435
-92,331
-94,161
-95,923
-97,613
-99,232
-100,777
-102,25
-103,649
-104,977
-106,234
-107,422
-108,544
-109,602
-110,598
-111,536
-112,418
-113,248
-114,03
-114,766
-115,46
-116,117
-116,74
-117,332
-117,898
-118,441
-118,964
-119,471
-119,967
-120,452
-120,932
-121,408
-121,882
-122,358
-122,835
-123,316
-123,801
-124,289
-124,782
-125,278
-125,775
-126,273
-126,769
-127,262
-127,749
-128,227
-128,694
-129,146
-129,582
-129,997
-130,39
-130,758
-131,098
-131,406
-131,682
-131,922
-132,124
-132,286
-132,406
-132,481
-132,51
-132,491
-132,422
-132,302
-132,131
-131,908
-131,632
-131,304
-130,925
-130,496
-130,019
-129,496
-128,93
-128,323
-127,679
-127,003
-126,298
-125,57
-124,822
-124,06
-123,289
-122,514
-121,74
-120,973
-120,216
-119,475
-118,755
-118,059
-117,393
-116,761
-116,166
-115,613
-115,105
-114,646
-114,238
-113,886
-113,592
-113,357
-113,185
-113,075
-113,031
-113,051
-113,137
-113,289
-113,506
-113,787
-114,131
-114,536
-114,999
-115,518
-116,089
-116,708
-117,372
-118,076
-118,817
-119,59
-120,39
-121,212
-122,053
-122,908
-123,773
-124,642
-125,513
-126,379
-127,237
-128,084
-128,914
-129,724
-130,509
-131,267
-131,994
-132,685
-133,338
-133,948
-134,512
-135,025
-135,485
-135,886
-136,225
-136,499
-136,705
-136,84
-136,901
-136,888
-136,799
-136,634
-136,392
-136,072
-135,675
-135,198
-134,64
-133,999
-133,274
-132,462
-131,562
-130,571
-129,487
-128,309
-127,038
-125,672
-124,209
-122,644
-120,977
-119,21
-117,346
-115,39
-113,351
-111,237
-109,06
-106,838
-104,589
-102,329
-100,07
-97,818
-95,577
-93,354
-91,155
-88,988
-86,856
-84,751
-82,664
-80,588
-78,516
-76,441
-74,348
-72,209
-70
-67,71
-65,33
-62,871
-60,352
-57,785
-55,191
-52,599
-50,046
-47,59
-45,29
-43,19
-41,335
-39,77
-38,546
-37,738
-37,409
-37,605
-38,362
-39,7
-41,627
-44,154
-47,275
-50,953
-55,14
-59,76
-64,731
-69,994
-75,486
-81,126
-86,827
-92,477
-97,968
-103,208
-108,107
-112,575
-116,529
-119,884
-122,581
-124,611
-125,985
-126,747
-126,953
-126,643
-125,871
-124,716
-123,276
-121,686
-120,09
-118,63
-117,465
-116,746
-116,654
-117,409
-119,141
-121,873
-125,503
-129,742
-134,291
-138,919
-143,292
-146,989
-149,71
-151,252
-151,735
-151,772
-151,925
-152,637
-154,392
-157,517
-162,157
-168,256
-175,024
-180,784
-183,706
-181,805
-173,039
-155,735
-128,287
-89,454
-39,106
21,687
91,089
166,376
244,239
321,147
392,868
455,027
503,812
536,151
549,889
543,916
518,058
473,158
411,526
336,611
252,588
163,951
75,034
-9,84
-86,598
-151,896
-203,479
-240,452
-263,179
-272,64
-270,125
-257,844
-238,622
-215,413
-191,052
-167,58
-146,199
-128,048
-114,284
-105,198
-100,332
-98,759
-99,171
-100,599
-102,489
-104,005
-104,025
-101,92
-97,56
-91,204
-83,538
-75,121
-66,297
-57,623
-49,847
-43,455
-38,668
-35,48
-33,599
-32,744
-32,722
-33,248
-33,977
-34,676
-35,188
-35,414
-35,354
-34,99
-34,272
-33,178
-31,687
-29,752
-27,345
-24,446
-21,035
-17,129
-12,76
-7,959
-2,767
2,783
8,668
14,859
21,335
28,081
35,067
42,258
49,614
57,074
64,582
72,09
79,545
86,909
94,164
101,301
108,323
115,245
122,067
128,79
135,409
141,917
148,319
154,631
160,875
167,092
173,341
179,691
186,231
193,046
200,187
207,695
215,591
223,886
232,593
241,731
251,309
261,347
271,871
282,895
294,427
306,455
318,93
331,78
344,905
358,196
371,561
384,912
398,16
411,22
424,01
436,444
448,435
459,877
470,63
480,546
489,485
497,316
503,937
509,269
513,239
515,792
516,887
516,495
514,604
511,207
506,289
499,834
491,843
482,352
471,441
459,219
445,795
431,287
415,82
399,528
382,562
365,084
347,226
329,107
310,845
292,557
274,385
256,492
239,022
222,094
205,81
190,247
175,486
161,606
148,647
136,622
125,516
115,293
105,934
97,432
89,763
82,893
76,764
71,288
66,386
61,991
58,021
54,4
51,037
47,834
44,727
41,68
38,674
35,702
32,755
29,81
26,861
23,914
20,977
18,077
15,231
12,45
9,759
7,191
4,784
2,584
0,618
-1,112
-2,606
-3,874
-4,926
-5,772
-6,428
-6,921
-7,273
-7,504
-7,635
-7,678
-7,653
-7,585
-7,499
-7,423
-7,378
-7,373
-7,418
-7,517
-7,674
-7,89
-8,16
-8,476
-8,835
-9,231
-9,663
-10,13
-10,629
-11,155
-11,705
-12,272
-12,854
-13,448
-14,05
-14,658
-15,27
-15,886
-16,504
-17,127
-17,754
-18,386
-19,022
-19,663
-20,31
-20,963
-21,622
-22,289
-22,964
-23,649
-24,346
-25,058
-25,787
-26,536
-27,306
-28,102
-28,925
-29,778
-30,663
-31,583
-32,538
-33,53
-34,562
-35,633
-36,745
-37,898
-39,094
-40,331
-41,611
-42,931
-44,292
-45,692
-47,129
-48,601
-50,107
-51,643
-53,206
-54,795
-56,405
-58,033
-59,676
-61,33
-62,992
-64,656
-66,318
-67,975
-69,622
-71,254
-72,867
-74,456
-76,017
-77,547
-79,04
-80,494
-81,904
-83,267
-84,58
-85,838
-87,039
-88,18
-89,257
-90,269
-91,213
-92,087
-92,89
-93,619
-94,274
-94,854
-95,357
-95,784
-96,134
-96,406
-96,601
-96,719
-96,761
-96,727
-96,618
-96,436
-96,183
-95,86
-95,469
-95,013
-94,494
-93,915
-93,278
-92,588
-91,847
-91,059
-90,228
-89,358
-88,454
-87,519
-86,56
-85,58
-84,584
-83,577
-82,565
-81,551
-80,542
-79,543
-78,559
-77,595
-76,658
-75,753
-74,885
-74,061
-73,286
-72,566
-71,905
-71,309
-70,783
-70,331
-69,958
-69,667
-69,463
-69,348
-69,327
-69,4
-69,57
-69,839
-70,207
-70,675
-71,244
-71,913
-72,681
-73,548
-74,512
-75,571
-76,723
-77,966
-79,295
-80,707
-82,198
-83,762
-85,393
-87,084
-88,828
-90,617
-92,442
-94,296
-96,17
-98,055
-99,942
-101,824
-103,693
-105,54
-107,355
-109,13
-110,855
-112,522
-114,122
-115,644
-117,08
-118,42
-119,656
-120,782
-121,788
-122,667
-123,409
-124,002
-124,437
-124,712
-124,823
-124,769
-124,554
-124,182
-123,662
-123,013
-122,248
-121,38
-120,418
-119,367
-118,236
-117,039
-115,786
-114,489
-113,153
-111,773
-110,346
-108,864
-107,313
-105,671
-103,909
-101,988
-99,88
-97,573
-95,061
-92,351
-89,448
-86,355
-83,088
-79,672
-76,143
-72,546
-68,938
-65,371
-61,918
-58,668
-55,713
-53,152
-51,07
-49,516
-48,534
-48,151
-48,385
-49,255
-50,766
-52,899
-55,628
-58,915
-62,706
-66,945
-71,554
-76,417
-81,425
-86,454
-91,387
-96,148
-100,668
-104,894
-108,798
-112,328
-115,425
-118,044
-120,133
-121,66
-122,658
-123,129
-123,07
-122,572
-121,738
-120,77
-120,004
-119,608
-119,605
-120,009
-120,76
-121,803
-123,18
-124,635
-125,597
-125,704
-124,721
-122,596
-119,608
-115,866
-111,262
-106,103
-101,13
-97,137
-95,05
-95,451
-98,316
-103,647
-111,546
-121,652
-133,004
-143,984
-152,289
-155,598
-151,995
-139,775
-117,257
-83,115
-36,856
20,875
88,134
161,971
239,053
315,902
388,471
452,432
503,883
539,524
557,236
556,333
536,761
499,128
445,349
378,25
301,324
218,734
134,336
51,482
-26,121
-95,113
-153,009
-197,817
-228,729
-246,033
-250,092
-241,884
-223,674
-198,026
-167,731
-135,995
-105,169
-77,172
-54,228
-37,647
-27,557
-23,644
-24,833
-29,426
-36,191
-43,765
-50,286
-54,63
-56,318
-55,168
-51,671
-46,618
-40,547
-34,179
-28,48
-23,944
-20,792
-19,088
-18,504
-18,655
-19,239
-19,854
-20,089
-19,75
-18,721
-16,941
-14,48
-11,387
-7,721
-3,616
0,811
5,474
10,303
15,246
20,256
25,252
30,159
34,936
39,575
44,103
48,546
52,905
57,198
61,447
65,702
70,035
74,498
79,124
83,947
88,994
94,301
99,909
105,846
112,117
118,716
125,618
132,803
140,264
147,987
155,95
164,124
172,467
180,942
189,524
198,189
206,914
215,679
224,455
233,22
241,96
250,66
259,31
267,901
276,416
284,842
293,175
301,423
309,609
317,768
325,926
334,102
342,312
350,564
358,862
367,205
375,577
383,958
392,321
400,636
408,872
416,996
424,943
432,626
439,929
446,711
452,833
458,158
462,551
465,882
468,033
468,911
468,447
466,589
463,292
458,511
452,202
444,34
434,938
424,043
411,737
398,135
383,37
367,592
350,974
333,699
315,938
297,839
279,533
261,139
242,791
224,63
206,804
189,449
172,675
156,577
141,233
126,696
112,993
100,124
88,054
76,733
66,125
56,198
46,928
38,289
30,228
22,682
15,587
8,883
2,516
-3,568
-9,431
-15,118
-20,647
-26,025
-31,232
-36,239
-41,036
-45,609
-49,938
-53,998
-57,748
-61,141
-64,147
-66,746
-68,919
-70,656
-71,941
-72,776
-73,192
-73,222
-72,907
-72,294
-71,411
-70,297
-69,007
-67,597
-66,135
-64,697
-63,332
-62,083
-60,988
-60,066
-59,335
-58,795
-58,417
-58,177
-58,057
-58,042
-58,127
-58,304
-58,551
-58,845
-59,158
-59,454
-59,709
-59,908
-60,032
-60,08
-60,058
-59,981
-59,884
-59,797
-59,737
-59,719
-59,746
-59,821
-59,95
-60,139
-60,389
-60,708
-61,102
-61,574
-62,129
-62,763
-63,469
-64,234
-65,038
-65,859
-66,686
-67,508
-68,318
-69,112
-69,887
-70,641
-71,376
-72,091
-72,785
-73,456
-74,101
-74,718
-75,308
-75,871
-76,411
-76,932
-77,434
-77,92
-78,393
-78,852
-79,3
-79,736
-80,158
-80,567
-80,963
-81,347
-81,72
-82,083
-82,439
-82,789
-83,136
-83,483
-83,83
-84,18
-84,535
-84,896
-85,264
-85,641
-86,029
-86,429
-86,842
-87,27
-87,714
-88,176
-88,656
-89,156
-89,676
-90,219
-90,783
-91,369
-91,978
-92,61
-93,265
-93,943
-94,645
-95,37
-96,117
-96,888
-97,681
-98,495
-99,33
-100,184
-101,057
-101,945
-102,848
-103,764
-104,69
-105,625
-106,567
-107,514
-108,462
-109,41
-110,356
-111,296
-112,228
-113,149
-114,056
-114,946
-115,818
-116,669
-117,496
-118,299
-119,076
-119,825
-120,546
-121,236
-121,896
-122,524
-123,119
-123,68
-124,206
-124,697
-125,153
-125,573
-125,957
-126,306
-126,621
-126,901
-127,147
-127,36
-127,542
-127,692
-127,813
-127,905
-127,972
-128,014
-128,033
-128,034
-128,016
-127,983
-127,936
-127,877
-127,806
-127,724
-127,63
-127,524
-127,406
-127,275
-127,13
-126,972
-126,799
-126,613
-126,413
-126,201
-125,976
-125,736
-125,478
-125,201
-124,901
-124,574
-124,218
-123,827
-123,397
-122,924
-122,407
-121,845
-121,232
-120,564
-119,831
-119,028
-118,153
-117,203
-116,179
-115,08
-113,91
-112,679
-111,402
-110,096
-108,77
-107,426
-106,059
-104,666
-103,246
-101,797
-100,317
-98,795
-97,22
-95,583
-93,881
-92,108
-90,252
-88,288
-86,179
-83,896
-81,426
-78,774
-75,958
-72,996
-69,913
-66,742
-63,528
-60,329
-57,201
-54,189
-51,327
-48,651
-46,208
-44,062
-42,289
-40,953
-40,095
-39,737
-39,887
-40,547
-41,706
-43,34
-45,405
-47,84
-50,594
-53,634
-56,932
-60,46
-64,173
-68,008
-71,885
-75,738
-79,509
-83,152
-86,631
-89,908
-92,958
-95,769
-98,338
-100,673
-102,769
-104,609
-106,169
-107,441
-108,44
-109,205
-109,799
-110,279
-110,691
-111,091
-111,549
-112,136
-112,935
-114,021
-115,44
-117,276
-119,66
-122,669
-126,315
-130,471
-134,824
-139,032
-142,794
-145,761
-147,551
-147,909
-146,761
-144,441
-141,727
-139,434
-138,23
-138,624
-140,964
-145,322
-151,31
-157,746
-162,67
-163,836
-159,067
-146,586
-124,89
-92,796
-49,901
3,157
64,639
131,817
201,537
270,726
335,996
393,744
440,77
474,288
492,331
494,183
479,646
448,907
403,204
344,606
275,823
200,378
121,834
43,376
-31,412
-99,044
-156,775
-202,332
-234,571
-253,528
-259,541
-253,576
-237,819
-214,867
-187,542
-159,004
-131,61
-107,198
-87,769
-74,441
-67,229
-65,71
-68,753
-74,663
-82,169
-89,916
-96,158
-99,886
-100,711
-98,512
-93,795
-87,369
-79,836
-72,021
-64,962
-59,213
-55,034
-52,52
-51,42
-51,445
-52,381
-53,874
-55,508
-57,045
-58,341
-59,323
-60,013
-60,374
-60,328
-59,834
-58,872
-57,432
-55,511
-53,11
-50,218
-46,852
-43,047
-38,84
-34,27
-29,371
-24,169
-18,689
-12,974
-7,088
-1,109
4,863
10,746
16,488
22,051
27,426
32,614
37,615
42,44
47,108
51,637
56,055
60,39
64,66
68,902
73,175
77,562
82,184
87,15
92,54
98,409
104,787
111,691
119,142
127,152
135,713
144,816
154,443
164,576
175,213
186,337
197,901
209,832
222,019
234,344
246,719
259,069
271,329
283,441
295,333
306,935
318,191
329,045
339,438
349,301
358,545
367,084
374,85
381,789
387,869
393,064
397,33
400,614
402,861
404,029
404,09
403,028
400,826
397,465
392,938
387,247
380,411
372,461
363,432
353,362
342,294
330,288
317,422
303,8
289,535
274,732
259,491
243,906
228,07
212,09
196,085
180,173
164,477
149,119
134,21
119,862
106,181
93,24
81,091
69,754
59,224
49,502
40,588
32,476
25,158
18,606
12,769
7,591
2,997
-1,096
-4,777
-8,143
-11,297
-14,312
-17,244
-20,126
-22,967
-25,781
-28,582
-31,377
-34,171
-36,958
-39,725
-42,455
-45,127
-47,707
-50,158
-52,432
-54,479
-56,263
-57,768
-58,988
-59,931
-60,607
-61,027
-61,208
-61,174
-60,946
-60,546
-59,997
-59,315
-58,526
-57,659
-56,743
-55,813
-54,894
-54,005
-53,158
-52,365
-51,631
-50,962
-50,359
-49,817
-49,335
-48,914
-48,553
-48,255
-48,019
-47,844
-47,727
-47,665
-47,654
-47,693
-47,778
-47,908
-48,078
-48,288
-48,534
-48,815
-49,129
-49,473
-49,844
-50,236
-50,648
-51,074
-51,511
-51,954
-52,401
-52,848
-53,291
-53,729
-54,159
-54,579
-54,988
-55,383
-55,764
-56,13
-56,479
-56,811
-57,124
-57,418
-57,691
-57,944
-58,177
-58,388
-58,578
-58,747
-58,895
-59,023
-59,132
-59,221
-59,292
-59,345
-59,381
-59,401
-59,407
-59,398
-59,376
-59,344
-59,3
-59,248
-59,188
-59,121
-59,048
-58,969
-58,887
-58,801
-58,712
-58,622
-58,532
-58,441
-58,352
-58,265
-58,182
-58,103
-58,029
-57,961
-57,901
-57,848
-57,804
-57,77
-57,745
-57,731
-57,727
-57,735
-57,754
-57,783
-57,824
-57,876
-57,937
-58,008
-58,088
-58,176
-58,271
-58,372
-58,478
-58,588
-58,7
-58,812
-58,923
-59,032
-59,135
-59,232
-59,321
-59,398
-59,463
-59,513
-59,548
-59,564
-59,56
-59,535
-59,487
-59,414
-59,315
-59,19
-59,036
-58,854
-58,643
-58,404
-58,138
-57,844
-57,525
-57,181
-56,814
-56,425
-56,016
-55,589
-55,147
-54,692
-54,226
-53,754
-53,279
-52,805
-52,335
-51,875
-51,427
-50,996
-50,585
-50,196
-49,832
-49,496
-49,188
-48,912
-48,669
-48,464
-48,297
-48,173
-48,095
-48,063
-48,08
-48,144
-48,253
-48,406
-48,598
-48,827
-49,09
-49,385
-49,714
-50,076
-50,469
-50,887
-51,322
-51,759
-52,184
-52,58
-52,928
-53,214
-53,425
-53,556
-53,607
-53,582
-53,486
-53,317
-53,064
-52,716
-52,27
-51,725
-51,089
-50,376
-49,61
-48,82
-48,047
-47,328
-46,687
-46,131
-45,651
-45,225
-44,824
-44,434
-44,046
-43,654
-43,246
-42,801
-42,296
-41,699
-40,961
-40,019
-38,794
-37,209
-35,211
-32,781
-29,927
-26,679
-23,085
-19,183
-15,018
-10,641
-6,105
-1,471
3,192
7,809
12,285
16,494
20,303
23,574
26,198
28,106
29,248
29,604
29,174
27,966
26,001
23,318
19,955
15,951
11,358
6,234
0,658
-5,258
-11,397
-17,638
-23,872
-30,008
-35,964
-41,672
-47,082
-52,154
-56,861
-61,188
-65,112
-68,602
-71,635
-74,19
-76,261
-77,863
-79,019
-79,767
-80,155
-80,245
-80,098
-79,763
-79,29
-78,732
-78,144
-77,59
-77,148
-76,881
-76,888
-77,31
-78,235
-79,682
-81,542
-83,522
-85,29
-86,539
-86,911
-86,019
-83,598
-79,549
-74,198
-68,324
-62,792
-58,385
-55,722
-55,233
-57,112
-61,104
-66,1
-70,175
-70,989
-66,113
-53,538
-31,568
1,245
45,568
100,947
165,775
237,263
311,966
386,535
457,325
520,371
572,116
609,453
630,109
633,25
618,764
586,903
538,987
477,285
404,716
325,055
242,159
159,373
80,346
8,71
-52,647
-101,422
-136,432
-157,772
-165,902
-161,699
-147,251
-125,241
-98,574
-70,411
-43,145
-18,504
1,655
15,942
24,061
26,406
24,044
18,56
11,173
2,959
-4,627
-10,306
-13,413
-13,771
-11,758
-8,107
-3,403
1,811
6,769
10,745
13,317
14,332
13,92
12,396
10,033
7,082
3,873
0,739
-2,104
-4,521
-6,449
-7,88
-8,779
-9,111
-8,883
-8,114
-6,821
-5,014
-2,701
0,105
3,363
7,024
11,045
15,398
20,065
25,027
30,243
35,662
41,229
46,903
52,647
58,422
64,179
69,87
75,466
80,963
86,372
91,705
96,971
102,168
107,291
112,346
117,349
122,321
127,287
132,274
137,324
142,496
147,87
153,527
159,519
165,876
172,609
179,728
187,246
195,172
203,512
212,26
221,407
230,952
240,892
251,207
261,857
272,77
283,851
295,004
306,152
317,232
328,18
338,928
349,401
359,526
369,236
378,466
387,145
395,184
402,49
408,98
414,586
419,262
422,973
425,679
427,333
427,885
427,3
425,558
422,651
418,581
413,344
406,944
399,393
390,715
380,949
370,14
358,334
345,581
331,939
317,489
302,334
286,585
270,35
253,725
236,799
219,657
202,394
185,11
167,913
150,921
134,248
118,007
102,314
87,277
72,994
59,539
46,948
35,239
24,429
14,538
5,585
-2,402
-9,418
-15,469
-20,573
-24,78
-28,148
-30,755
-32,699
-34,084
-35,021
-35,608
-35,917
-36,003
-35,928
-35,756
-35,56
-35,424
-35,416
-35,597
-36,032
-36,757
-37,797
-39,156
-40,813
-42,733
-44,869
-47,176
-49,62
-52,175
-54,806
-57,476
-60,14
-62,735
-65,217
-67,54
-69,652
-71,518
-73,109
-74,408
-75,419
-76,158
-76,646
-76,907
-76,968
-76,848
-76,573
-76,173
-75,682
-75,144
-74,592
-74,055
-73,565
-73,147
-72,82
-72,601
-72,495
-72,499
-72,611
-72,825
-73,133
-73,53
-74,008
-74,554
-75,157
-75,799
-76,468
-77,156
-77,853
-78,553
-79,252
-79,945
-80,631
-81,313
-81,991
-82,666
-83,339
-84,01
-84,679
-85,347
-86,019
-86,694
-87,376
-88,064
-88,759
-89,461
-90,169
-90,882
-91,6
-92,32
-93,041
-93,761
-94,481
-95,2
-95,917
-96,632
-97,343
-98,051
-98,753
-99,449
-100,138
-100,819
-101,489
-102,147
-102,793
-103,425
-104,041
-104,641
-105,222
-105,782
-106,32
-106,834
-107,32
-107,779
-108,206
-108,601
-108,961
-109,284
-109,57
-109,816
-110,02
-110,182
-110,3
-110,372
-110,398
-110,378
-110,31
-110,195
-110,033
-109,824
-109,569
-109,268
-108,924
-108,537
-108,108
-107,64
-107,133
-106,591
-106,014
-105,406
-104,769
-104,106
-103,419
-102,712
-101,987
-101,247
-100,497
-99,738
-98,974
-98,209
-97,445
-96,685
-95,933
-95,192
-94,463
-93,751
-93,056
-92,382
-91,73
-91,101
-90,496
-89,918
-89,366
-88,842
-88,345
-87,877
-87,436
-87,023
-86,637
-86,279
-85,946
-85,638
-85,355
-85,094
-84,855
-84,637
-84,438
-84,257
-84,091
-83,94
-83,802
-83,675
-83,557
-83,447
-83,343
-83,244
-83,148
-83,054
-82,961
-82,867
-82,772
-82,674
-82,572
-82,466
-82,354
-82,237
-82,113
-81,982
-81,845
-81,7
-81,548
-81,389
-81,223
-81,049
-80,867
-80,676
-80,476
-80,268
-80,049
-79,821
-79,582
-79,332
-79,07
-78,797
-78,512
-78,214
-77,903
-77,577
-77,237
-76,882
-76,511
-76,124
-75,721
-75,303
-74,869
-74,421
-73,958
-73,481
-72,989
-72,482
-71,959
-71,42
-70,864
-70,29
-69,7
-69,095
-68,477
-67,848
-67,213
-66,574
-65,936
-65,304
-64,681
-64,068
-63,469
-62,885
-62,32
-61,783
-61,276
-60,801
-60,359
-59,95
-59,572
-59,225
-58,904
-58,595
-58,289
-57,976
-57,651
-57,319
-56,985
-56,647
-56,31
-55,972
-55,641
-55,333
-55,065
-54,845
-54,686
-54,595
-54,594
-54,717
-54,996
-55,455
-56,107
-56,949
-57,978
-59,196
-60,599
-62,176
-63,899
-65,718
-67,594
-69,495
-71,386
-73,235
-74,996
-76,595
-77,967
-79,058
-79,821
-80,232
-80,266
-79,892
-79,09
-77,861
-76,231
-74,252
-71,972
-69,427
-66,664
-63,73
-60,688
-57,63
-54,647
-51,824
-49,245
-46,982
-45,102
-43,683
-42,79
-42,461
-42,711
-43,532
-44,911
-46,848
-49,333
-52,346
-55,855
-59,805
-64,129
-68,76
-73,613
-78,601
-83,637
-88,626
-93,476
-98,118
-102,494
-106,556
-110,263
-113,561
-116,399
-118,738
-120,546
-121,813
-122,549
-122,782
-122,568
-121,982
-121,098
-120,003
-118,802
-117,595
-116,494
-115,617
-115,058
-114,944
-115,449
-116,687
-118,7
-121,421
-124,593
-127,908
-131,084
-133,749
-135,474
-135,978
-135,129
-133,138
-130,699
-128,574
-127,427
-127,908
-130,513
-135,38
-142,247
-150,105
-157,023
-160,732
-158,895
-149,213
-129,714
-98,855
-55,774
-0,706
64,799
138,133
215,951
294,493
369,773
437,621
494,159
536,069
560,937
567,689
556,196
527,023
481,675
422,503
352,408
274,971
193,972
112,665
34,313
-37,856
-101,241
-153,656
-193,56
-220,575
-234,944
-237,291
-229,222
-213
-191,084
-166,417
-141,802
-119,4
-101,194
-88,51
-81,606
-80,161
-83,324
-89,567
-97,288
-104,962
-110,911
-114,071
-114,102
-110,949
-104,994
-96,967
-87,61
-77,798
-68,56
-60,518
-53,921
-48,866
-45,196
-42,689
-41,17
-40,356
-39,89
-39,549
-39,213
-38,831
-38,451
-38,096
-37,743
-37,381
-37,003
-36,587
-36,115
-35,552
-34,839
-33,922
-32,755
-31,289
-29,503
-27,383
-24,916
-22,09
-18,893
-15,313
-11,35
-7,016
-2,323
2,717
8,095
13,801
19,812
26,099
32,627
39,357
46,264
53,336
60,566
67,952
75,493
83,184
91,028
99,03
107,191
115,506
123,964
132,542
141,224
150
158,865
167,819
176,852
185,943
195,068
204,196
213,301
222,36
231,348
240,234
249,002
257,645
266,177
274,633
283,036
291,403
299,743
308,055
316,343
324,609
332,845
341,037
349,16
357,185
365,087
372,838
380,392
387,675
394,581
400,977
406,738
411,741
415,87
419,013
421,05
421,882
421,439
419,663
416,508
411,931
405,878
398,309
389,215
378,62
366,588
353,22
338,625
322,935
306,297
288,872
270,841
252,366
233,587
214,644
195,682
176,858
158,355
140,345
122,979
106,395
90,709
76,002
62,34
49,751
38,229
27,753
18,282
9,777
2,213
-4,452
-10,274
-15,327
-19,706
-23,513
-26,847
-29,812
-32,519
-35,054
-37,485
-39,856
-42,181
-44,465
-46,711
-48,914
-51,075
-53,185
-55,227
-57,183
-59,026
-60,723
-62,24
-63,534
-64,553
-65,262
-65,643
-65,69
-65,416
-64,837
-63,969
-62,837
-61,471
-59,901
-58,156
-56,266
-54,253
-52,151
-49,99
-47,807
-45,642
-43,526
-41,481
-39,527
-37,676
-35,94
-34,326
-32,838
-31,474
-30,235
-29,12
-28,131
-27,27
-26,537
-25,929
-25,442
-25,072
-24,814
-24,665
-24,619
-24,671
-24,816
-25,05
-25,367
-25,764
-26,235
-26,773
-27,373
-28,027
-28,728
-29,469
-30,243
-31,042
-31,86
-32,69
-33,527
-34,365
-35,199
-36,025
-36,837
-37,632
-38,408
-39,16
-39,887
-40,586
-41,255
-41,893
-42,499
-43,071
-43,609
-44,114
-44,585
-45,022
-45,426
-45,797
-46,137
-46,445
-46,723
-46,971
-47,19
-47,381
-47,544
-47,68
-47,791
-47,876
-47,935
-47,97
-47,98
-47,965
-47,925
-47,859
-47,766
-47,646
-47,497
-47,319
-47,11
-46,869
-46,594
-46,284
-45,939
-45,555
-45,133
-44,67
-44,166
-43,621
-43,033
-42,402
-41,728
-41,012
-40,254
-39,455
-38,617
-37,742
-36,831
-35,887
-34,914
-33,914
-32,89
-31,848
-30,791
-29,724
-28,651
-27,579
-26,512
-25,456
-24,417
-23,402
-22,417
-21,467
-20,56
-19,702
-18,898
-18,157
-17,483
-16,882
-16,36
-15,923
-15,574
-15,318
-15,16
-15,101
-15,145
-15,294
-15,549
-15,91
-16,378
-16,952
-17,631
-18,412
-19,292
-20,269
-21,338
-22,495
-23,734
-25,05
-26,436
-27,885
-29,39
-30,943
-32,536
-34,16
-35,808
-37,468
-39,133
-40,793
-42,438
-44,061
-45,651
-47,2
-48,699
-50,141
-51,518
-52,823
-54,049
-55,19
-56,242
-57,2
-58,06
-58,819
-59,476
-60,03
-60,478
-60,823
-61,065
-61,206
-61,248
-61,194
-61,049
-60,817
-60,504
-60,115
-59,657
-59,137
-58,563
-57,941
-57,282
-56,592
-55,88
-55,154
-54,424
-53,697
-52,982
-52,287
-51,619
-50,986
-50,394
-49,851
-49,36
-48,928
-48,558
-48,254
-48,018
-47,852
-47,759
-47,737
-47,788
-47,91
-48,102
-48,363
-48,689
-49,077
-49,523
-50,021
-50,567
-51,154
-51,777
-52,428
-53,1
-53,787
-54,482
-55,177
-55,864
-56,537
-57,187
-57,809
-58,394
-58,936
-59,43
-59,87
-60,252
-60,57
-60,823
-61,008
-61,122
-61,165
-61,134
-61,03
-60,853
-60,603
-60,281
-59,889
-59,428
-58,904
-58,32
-57,682
-56,995
-56,268
-55,509
-54,726
-53,93
-53,129
-52,33
-51,545
-50,783
-50,055
-49,371
-48,741
-48,176
-47,687
-47,287
-46,988
-46,798
-46,724
-46,769
-46,937
-47,239
-47,682
-48,276
-49,03
-49,953
-51,06
-52,373
-53,908
-55,678
-57,687
-59,927
-62,395
-65,093
-68,018
-71,168
-74,528
-78,071
-81,772
-85,607
-89,539
-93,522
-97,488
-101,347
-105,018
-108,433
-111,535
-114,283
-116,633
-118,535
-119,955
-120,877
-121,308
-121,286
-120,841
-120,003
-118,828
-117,395
-115,821
-114,27
-112,902
-111,867
-111,313
-111,356
-112,134
-113,824
-116,525
-120,256
-124,932
-130,31
-136,126
-142,17
-148,14
-153,619
-158,263
-161,791
-164,143
-165,676
-166,821
-167,911
-169,343
-171,519
-174,67
-178,867
-183,726
-188,071
-190,308
-188,793
-181,829
-167,529
-144,025
-109,847
-64,037
-7,547
56,631
126,631
200,958
278,589
360,246
441,195
512,511
565,888
591,787
588,432
562,04
518,282
464,527
404,681
337,296
263,41
185,071
105,083
28,803
-39,738
-98,406
-145,653
-180,966
-204,707
-217,37
-219,497
-212,49
-198,359
-179,147
-157,072
-134,232
-112,082
-91,963
-75,481
-63,653
-56,689
-54,327
-55,774
-60,027
-66,288
-73,625
-80,65
-86,086
-89,217
-89,788
-87,983
-84,225
-78,869
-72,342
-65,382
-58,796
-53,072
-48,417
-44,779
-41,938
-39,729
-38,014
-36,559
-35,1
-33,484
-31,651
-29,631
-27,529
-25,406
-23,288
-21,195
-19,125
-17,061
-14,991
-12,893
-10,74
-8,508
-6,169
-3,686
-1,039
1,785
4,799
8,015
11,455
15,14
19,07
23,227
27,564
32,042
36,638
41,348
46,165
51,08
56,077
61,143
66,296
71,573
77,005
82,617
88,42
94,423
100,649
107,14
113,938
121,075
128,56
136,387
144,551
153,049
161,869
170,983
180,334
189,845
199,456
209,119
218,796
228,457
238,062
247,575
256,977
266,263
275,436
284,503
293,457
302,29
311,002
319,604
328,112
336,544
344,892
353,133
361,244
369,189
376,919
384,365
391,412
397,937
403,816
408,929
413,169
416,429
418,593
419,558
419,242
417,582
414,537
410,076
404,159
396,757
387,871
377,543
365,858
352,924
338,847
323,751
307,772
291,06
273,788
256,114
238,167
220,066
201,923
183,864
166,038
148,596
131,667
115,357
99,75
84,915
70,928
57,835
45,65
34,36
23,929
14,329
5,551
-2,414
-9,589
-16,009
-21,741
-26,86
-31,43
-35,52
-39,2
-42,545
-45,643
-48,554
-51,31
-53,925
-56,394
-58,723
-60,924
-63,006
-64,97
-66,808
-68,504
-70,041
-71,408
-72,585
-73,546
-74,257
-74,677
-74,783
-74,572
-74,05
-73,231
-72,132
-70,767
-69,156
-67,325
-65,302
-63,11
-60,772
-58,308
-55,74
-53,096
-50,407
-47,706
-45,019
-42,364
-39,755
-37,205
-34,723
-32,317
-29,99
-27,743
-25,577
-23,495
-21,502
-19,603
-17,803
-16,102
-14,503
-13,006
-11,612
-10,323
-9,14
-8,064
-7,095
-6,235
-5,484
-4,846
-4,321
-3,909
-3,609
-3,421
-3,342
-3,372
-3,508
-3,747
-4,088
-4,528
-5,064
-5,695
-6,417
-7,229
-8,126
-9,108
-10,17
-11,308
-12,519
-13,798
-15,141
-16,544
-18
-19,504
-21,052
-22,637
-24,255
-25,898
-27,562
-29,24
-30,927
-32,616
-34,302
-35,98
-37,643
-39,288
-40,908
-42,499
-44,057
-45,577
-47,056
-48,49
-49,875
-51,207
-52,485
-53,704
-54,864
-55,96
-56,992
-57,958
-58,857
-59,688
-60,452
-61,149
-61,78
-62,345
-62,846
-63,285
-63,664
-63,985
-64,251
-64,466
-64,631
-64,751
-64,828
-64,866
-64,869
-64,838
-64,779
-64,693
-64,584
-64,454
-64,308
-64,147
-63,975
-63,794
-63,606
-63,415
-63,222
-63,03
-62,842
-62,658
-62,481
-62,313
-62,155
-62,009
-61,876
-61,757
-61,653
-61,564
-61,491
-61,434
-61,393
-61,368
-61,36
-61,367
-61,389
-61,427
-61,48
-61,548
-61,63
-61,726
-61,835
-61,958
-62,093
-62,24
-62,399
-62,569
-62,751
-62,943
-63,145
-63,357
-63,576
-63,803
-64,037
-64,275
-64,517
-64,761
-65,007
-65,251
-65,493
-65,732
-65,967
-66,196
-66,418
-66,631
-66,835
-67,027
-67,207
-67,373
-67,523
-67,658
-67,775
-67,875
-67,956
-68,019
-68,062
-68,086
-68,09
-68,073
-68,036
-67,978
-67,899
-67,799
-67,68
-67,542
-67,387
-67,217
-67,032
-66,836
-66,63
-66,418
-66,201
-65,982
-65,762
-65,543
-65,327
-65,117
-64,914
-64,72
-64,539
-64,373
-64,227
-64,104
-64,005
-63,932
-63,886
-63,865
-63,873
-63,907
-63,965
-64,048
-64,154
-64,285
-64,45
-64,649
-64,878
-65,132
-65,401
-65,676
-65,951
-66,215
-66,454
-66,659
-66,822
-66,945
-67,041
-67,112
-67,156
-67,162
-67,112
-66,996
-66,821
-66,591
-66,317
-66,013
-65,689
-65,373
-65,109
-64,921
-64,818
-64,79
-64,801
-64,832
-64,879
-64,939
-65,017
-65,108
-65,184
-65,223
-65,205
-65,092
-64,842
-64,395
-63,66
-62,584
-61,146
-59,348
-57,233
-54,829
-52,151
-49,224
-46,081
-42,762
-39,331
-35,848
-32,366
-28,967
-25,749
-22,822
-20,326
-18,366
-17,009
-16,304
-16,262
-16,895
-18,227
-20,258
-22,969
-26,331
-30,296
-34,804
-39,804
-45,216
-50,937
-56,857
-62,833
-68,74
-74,478
-79,946
-85,07
-89,775
-93,974
-97,599
-100,602
-102,949
-104,633
-105,672
-106,081
-105,899
-105,192
-104,029
-102,519
-100,775
-98,916
-97,077
-95,391
-94,001
-93,056
-92,714
-93,157
-94,506
-96,797
-99,955
-103,747
-107,891
-112,116
-116,073
-119,317
-121,513
-122,429
-122,114
-121,119
-120,055
-119,497
-120,095
-122,325
-126,436
-132,472
-139,764
-146,692
-151,343
-151,503
-144,804
-129,346
-103,384
-65,5
-15,476
45,695
116,161
192,945
272,491
351,227
424,912
489,16
540,349
575,43
592,281
590,154
568,858
528,925
472,421
402,279
321,964
235,638
147,267
60,491
-20,555
-92,208
-151,953
-197,939
-229,537
-247,217
-251,594
-244,071
-227,414
-204,586
-178,507
-152,174
-127,625
-106,431
-90,388
-80,308
-75,83
-76,225
-80,218
-86,208
-93,149
-99,92
-105,001
-107,586
-107,483
-104,749
-99,974
-93,921
-87,067
-80,054
-73,735
-68,529
-64,587
-61,922
-60,239
-59,239
-58,725
-58,393
-57,895
-57,06
-55,813
-54,136
-52,106
-49,744
-47,035
-44,017
-40,743
-37,256
-33,605
-29,809
-25,875
-21,832
-17,715
-13,551
-9,366
-5,147
-0,864
3,496
7,927
12,406
16,889
21,349
25,771
30,142
34,46
38,723
42,931
47,096
51,237
55,367
59,504
63,654
67,815
72,005
76,262
80,643
85,231
90,099
95,311
100,918
106,956
113,452
120,424
127,877
135,801
144,182
152,992
162,206
171,803
181,744
191,975
202,428
213,01
223,643
234,261
244,812
255,256
265,559
275,687
285,618
295,339
304,835
314,093
323,093
331,795
340,172
348,198
355,854
363,129
369,987
376,364
382,187
387,372
391,829
395,477
398,22
399,96
400,617
400,122
398,43
395,522
391,372
385,955
379,251
371,242
361,941
351,404
339,695
326,894
313,104
298,433
283,015
267,001
250,526
233,711
216,664
199,478
182,263
165,143
148,245
131,701
115,629
100,122
85,27
71,157
57,835
45,337
33,67
22,807
12,736
3,451
-5,054
-12,784
-19,763
-26,037
-31,661
-36,698
-41,222
-45,303
-49,018
-52,456
-55,675
-58,719
-61,609
-64,347
-66,939
-69,4
-71,738
-73,96
-76,067
-78,05
-79,901
-81,608
-83,151
-84,506
-85,64
-86,514
-87,108
-87,413
-87,434
-87,187
-86,69
-85,957
-85,01
-83,876
-82,578
-81,143
-79,592
-77,945
-76,224
-74,459
-72,678
-70,914
-69,191
-67,528
-65,939
-64,432
-63,015
-61,693
-60,465
-59,328
-58,28
-57,319
-56,443
-55,654
-54,949
-54,324
-53,775
-53,295
-52,881
-52,527
-52,227
-51,977
-51,77
-51,603
-51,471
-51,371
-51,299
-51,25
-51,219
-51,201
-51,191
-51,185
-51,179
-51,166
-51,145
-51,11
-51,06
-50,993
-50,906
-50,799
-50,672
-50,524
-50,356
-50,169
-49,963
-49,741
-49,503
-49,252
-48,989
-48,716
-48,436
-48,152
-47,865
-47,577
-47,292
-47,012
-46,739
-46,474
-46,219
-45,977
-45,748
-45,535
-45,338
-45,159
-44,999
-44,859
-44,739
-44,64
-44,562
-44,505
-44,467
-44,448
-44,446
-44,461
-44,489
-44,529
-44,578
-44,635
-44,697
-44,761
-44,824
-44,884
-44,938
-44,983
-45,017
-45,037
-45,041
-45,026
-44,991
-44,935
-44,854
-44,749
-44,618
-44,46
-44,274
-44,059
-43,816
-43,544
-43,242
-42,912
-42,553
-42,167
-41,754
-41,316
-40,854
-40,371
-39,868
-39,348
-38,812
-38,264
-37,706
-37,141
-36,572
-36,002
-35,434
-34,87
-34,315
-33,771
-33,242
-32,73
-32,239
-31,771
-31,33
-30,917
-30,536
-30,188
-29,878
-29,605
-29,374
-29,186
-29,042
-28,945
-28,895
-28,895
-28,945
-29,045
-29,196
-29,398
-29,653
-29,958
-30,315
-30,724
-31,184
-31,694
-32,255
-32,866
-33,526
-34,234
-34,989
-35,789
-36,634
-37,522
-38,451
-39,419
-40,424
-41,464
-42,537
-43,641
-44,774
-45,932
-47,114
-48,318
-49,54
-50,778
-52,03
-53,294
-54,567
-55,848
-57,136
-58,427
-59,72
-61,012
-62,302
-63,587
-64,864
-66,129
-67,379
-68,609
-69,817
-70,998
-72,15
-73,269
-74,352
-75,397
-76,401
-77,363
-78,281
-79,15
-79,969
-80,733
-81,439
-82,083
-82,662
-83,17
-83,604
-83,958
-84,232
-84,421
-84,523
-84,531
-84,439
-84,241
-83,936
-83,525
-83,008
-82,391
-81,679
-80,879
-80,01
-79,083
-78,113
-77,11
-76,076
-75,014
-73,926
-72,818
-71,695
-70,56
-69,401
-68,209
-66,975
-65,69
-64,345
-62,926
-61,404
-59,755
-57,968
-56,035
-53,97
-51,791
-49,517
-47,171
-44,785
-42,401
-40,079
-37,888
-35,88
-34,112
-32,635
-31,504
-30,791
-30,56
-30,856
-31,717
-33,159
-35,188
-37,807
-41,011
-44,771
-49,041
-53,752
-58,812
-64,148
-69,682
-75,339
-81,046
-86,708
-92,24
-97,57
-102,627
-107,354
-111,7
-115,612
-119,048
-121,996
-124,469
-126,51
-128,195
-129,592
-130,762
-131,776
-132,711
-133,664
-134,737
-136,032
-137,631
-139,634
-142,182
-145,366
-149,226
-153,681
-158,479
-163,313
-167,875
-171,785
-174,622
-176,072
-175,934
-174,314
-171,784
-168,968
-166,481
-164,992
-164,999
-166,803
-170,425
-175,127
-179,285
-181,025
-178,207
-168,596
-150,335
-121,653
-81,244
-29,081
33,643
104,873
181,537
260,107
336,973
407,852
468,529
515,725
546,873
560,456
556,237
534,422
495,924
443,079
378,808
306,323
229,302
151,004
74,337
2,718
-60,892
-114,514
-156,569
-186,484
-204,573
-211,084
-206,922
-194,249
-175,38
-152,712
-128,916
-105,832
-84,956
-68,103
-56,22
-49,221
-46,73
-47,783
-50,968
-55,337
-59,806
-62,877
-63,741
-62,124
-57,945
-51,65
-43,894
-35,146
-26,096
-17,668
-10,365
-4,429
0,032
3,206
5,291
6,427
6,903
7,098
7,253
7,506
7,919
8,453
9,112
9,961
11,025
12,306
13,807
15,533
17,513
19,808
22,469
25,514
28,931
32,689
36,755
41,114
45,746
50,623
55,688
60,869
66,103
71,35
76,587
81,799
86,957
92,024
96,961
101,753
106,415
110,98
115,48
119,945
124,421
128,966
133,672
138,646
143,966
149,684
155,832
162,431
169,509
177,097
185,209
193,839
202,962
212,537
222,534
232,919
243,633
254,604
265,735
276,917
288,086
299,193
310,197
321,069
331,766
342,25
352,501
362,507
372,25
381,706
390,829
399,573
407,914
415,824
423,284
430,271
436,713
442,536
447,677
452,062
455,624
458,29
459,967
460,576
460,074
458,433
455,656
451,749
446,702
440,525
433,239
424,884
415,531
405,248
394,082
382,101
369,382
356,023
342,142
327,838
313,175
298,209
282,989
267,567
252,015
236,395
220,749
205,122
189,555
174,103
158,855
143,883
129,236
114,954
101,062
87,598
74,63
62,219
50,406
39,227
28,702
18,853
9,717
1,318
-6,341
-13,274
-19,52
-25,117
-30,09
-34,465
-38,277
-41,568
-44,394
-46,809
-48,829
-50,479
-51,79
-52,793
-53,537
-54,07
-54,42
-54,621
-54,706
-54,701
-54,639
-54,545
-54,422
-54,281
-54,134
-53,995
-53,908
-53,911
-54,02
-54,254
-54,617
-55,105
-55,718
-56,44
-57,233
-58,069
-58,927
-59,79
-60,663
-61,539
-62,407
-63,25
-64,042
-64,757
-65,386
-65,916
-66,339
-66,656
-66,871
-67,004
-67,093
-67,168
-67,246
-67,342
-67,458
-67,598
-67,773
-67,99
-68,257
-68,578
-68,957
-69,397
-69,903
-70,475
-71,107
-71,789
-72,5
-73,225
-73,956
-74,688
-75,416
-76,141
-76,859
-77,57
-78,28
-78,99
-79,702
-80,419
-81,139
-81,863
-82,595
-83,337
-84,095
-84,872
-85,671
-86,491
-87,336
-88,203
-89,093
-90,005
-90,934
-91,877
-92,834
-93,8
-94,776
-95,758
-96,745
-97,733
-98,721
-99,705
-100,682
-101,65
-102,604
-103,541
-104,456
-105,346
-106,208
-107,037
-107,829
-108,582
-109,29
-109,951
-110,562
-111,119
-111,619
-112,061
-112,443
-112,762
-113,019
-113,213
-113,342
-113,409
-113,413
-113,356
-113,239
-113,062
-112,829
-112,54
-112,199
-111,807
-111,369
-110,886
-110,364
-109,805
-109,213
-108,594
-107,951
-107,29
-106,613
-105,925
-105,232
-104,537
-103,844
-103,159
-102,483
-101,823
-101,181
-100,561
-99,966
-99,398
-98,861
-98,355
-97,884
-97,447
-97,047
-96,684
-96,359
-96,072
-95,824
-95,615
-95,444
-95,31
-95,211
-95,145
-95,111
-95,104
-95,121
-95,157
-95,21
-95,274
-95,347
-95,423
-95,5
-95,573
-95,64
-95,697
-95,741
-95,766
-95,767
-95,738
-95,674
-95,57
-95,42
-95,219
-94,96
-94,639
-94,256
-93,807
-93,289
-92,696
-92,02
-91,258
-90,408
-89,473
-88,453
-87,352
-86,176
-84,936
-83,652
-82,341
-81,015
-79,677
-78,326
-76,964
-75,592
-74,213
-72,83
-71,437
-70,03
-68,605
-67,163
-65,704
-64,221
-62,697
-61,099
-59,403
-57,6
-55,697
-53,714
-51,669
-49,587
-47,498
-45,443
-43,479
-41,659
-40,022
-38,601
-37,425
-36,53
-35,972
-35,816
-36,113
-36,898
-38,187
-39,981
-42,281
-45,074
-48,327
-51,986
-55,969
-60,197
-64,607
-69,143
-73,751
-78,371
-82,927
-87,336
-91,529
-95,443
-99,022
-102,221
-104,991
-107,299
-109,143
-110,547
-111,576
-112,311
-112,822
-113,173
-113,416
-113,612
-113,843
-114,204
-114,792
-115,698
-116,993
-118,775
-121,195
-124,325
-128,133
-132,431
-136,818
-140,878
-144,29
-146,677
-147,61
-146,819
-144,225
-140,186
-135,578
-131,26
-127,863
-125,928
-125,878
-127,858
-131,609
-135,96
-138,785
-137,811
-131,023
-116,459
-92,21
-56,867
-9,523
48,715
114,337
184,728
257,803
332,165
408,061
480,813
541,823
583,244
596,465
580,072
540,187
482,489
414,354
340,048
259,087
173,237
84,985
-2,15
-82,339
-151,384
-207,021
-247,795
-273,825
-285,959
-284,982
-272,501
-251,095
-223,546
-192,656
-161,098
-130,792
-103,299
-80,376
-63,199
-51,927
-46,113
-44,789
-46,713
-50,931
-56,455
-61,812
-65,674
-67,382
-66,782
-64,2
-60,216
-55,272
-49,827
-44,645
-40,51
-37,848
-36,781
-37,141
-38,591
-40,869
-43,731
-46,835
-49,806
-52,372
-54,376
-55,767
-56,561
-56,744
-56,296
-55,221
-53,553
-51,332
-48,589
-45,349
-41,63
-37,461
-32,892
-27,972
-22,742
-17,24
-11,5
-5,558
0,534
6,721
12,963
19,226
25,485
31,72
37,903
44,013
50,046
56,01
61,926
67,818
73,703
79,595
85,516
91,495
97,574
103,802
110,209
116,824
123,672
130,786
138,214
145,99
154,126
162,617
171,446
180,591
190,036
199,756
209,716
219,872
230,174
240,578
251,057
261,585
272,128
282,643
293,069
303,352
313,456
323,347
332,991
342,341
351,347
359,965
368,16
375,901
383,145
389,828
395,865
401,171
405,662
409,264
411,907
413,52
414,021
413,341
411,436
408,278
403,853
398,146
391,135
382,797
373,136
362,19
350,019
336,698
322,308
306,936
290,689
273,692
256,091
238,022
219,604
200,947
182,163
163,368
144,699
126,306
108,317
90,84
73,97
57,793
42,395
27,856
14,227
1,533
-10,224
-21,046
-30,931
-39,881
-47,911
-55,053
-61,362
-66,911
-71,763
-75,975
-79,609
-82,725
-85,4
-87,721
-89,76
-91,571
-93,205
-94,71
-96,129
-97,502
-98,852
-100,188
-101,512
-102,814
-104,098
-105,371
-106,636
-107,902
-109,158
-110,381
-111,547
-112,636
-113,619
-114,465
-115,149
-115,655
-115,978
-116,128
-116,115
-115,95
-115,639
-115,183
-114,582
-113,827
-112,922
-111,877
-110,707
-109,437
-108,097
-106,729
-105,363
-104,03
-102,746
-101,521
-100,362
-99,274
-98,262
-97,33
-96,487
-95,744
-95,112
-94,599
-94,207
-93,932
-93,765
-93,689
-93,692
-93,76
-93,883
-94,055
-94,271
-94,528
-94,824
-95,159
-95,531
-95,935
-96,364
-96,813
-97,274
-97,744
-98,218
-98,696
-99,173
-99,649
-100,121
-100,587
-101,041
-101,48
-101,898
-102,29
-102,648
-102,968
-103,245
-103,475
-103,653
-103,777
-103,843
-103,848
-103,791
-103,669
-103,479
-103,22
-102,891
-102,489
-102,014
-101,465
-100,841
-100,144
-99,373
-98,53
-97,616
-96,633
-95,582
-94,467
-93,289
-92,051
-90,758
-89,412
-88,018
-86,579
-85,102
-83,591
-82,053
-80,493
-78,917
-77,334
-75,75
-74,171
-72,605
-71,06
-69,541
-68,055
-66,61
-65,211
-63,865
-62,578
-61,355
-60,203
-59,126
-58,129
-57,217
-56,392
-55,66
-55,021
-54,48
-54,037
-53,695
-53,453
-53,312
-53,272
-53,332
-53,49
-53,744
-54,089
-54,523
-55,038
-55,629
-56,289
-57,008
-57,779
-58,592
-59,438
-60,307
-61,191
-62,08
-62,965
-63,837
-64,688
-65,507
-66,285
-67,012
-67,679
-68,274
-68,789
-69,213
-69,538
-69,754
-69,855
-69,834
-69,684
-69,397
-68,964
-68,381
-67,644
-66,754
-65,713
-64,528
-63,205
-61,757
-60,203
-58,56
-56,846
-55,076
-53,263
-51,417
-49,551
-47,676
-45,805
-43,945
-42,096
-40,257
-38,421
-36,581
-34,731
-32,857
-30,939
-28,959
-26,909
-24,785
-22,594
-20,347
-18,062
-15,762
-13,473
-11,234
-9,098
-7,122
-5,372
-3,91
-2,793
-2,084
-1,848
-2,142
-3,009
-4,484
-6,586
-9,328
-12,712
-16,727
-21,354
-26,55
-32,256
-38,392
-44,864
-51,575
-58,436
-65,35
-72,223
-78,965
-85,494
-91,737
-97,629
-103,103
-108,102
-112,577
-116,489
-119,829
-122,616
-124,899
-126,754
-128,264
-129,498
-130,54
-131,488
-132,439
-133,501
-134,779
-136,349
-138,326
-140,867
-144,069
-147,959
-152,416
-157,133
-161,764
-165,991
-169,44
-171,702
-172,477
-171,631
-169,443
-166,643
-164,021
-162,267
-161,913
-163,338
-166,696
-171,715
-177,306
-181,584
-182,302
-177,181
-164,337
-142,143
-109,213
-64,927
-9,756
54,67
125,578
199,612
273,449
343,392
405,432
455,963
491,834
510,813
512,102
495,578
461,583
411,61
348,062
274,006
193,334
109,882
26,977
-51,725
-122,731
-183,328
-231,276
-265,495
-286,126
-293,549
-288,69
-273,693
-251,089
-223,66
-194,612
-166,311
-140,582
-119,455
-104,122
-94,697
-90,874
-91,597
-95,192
-100,436
-106,047
-110,334
-112,306
-111,552
-107,906
-101,85
-94,172
-85,438
-76,41
-68,067
-60,927
-55,236
-51,084
-48,211
-46,311
-45,151
-44,364
-43,533
-42,426
-40,919
-38,966
-36,625
-33,922
-30,855
-27,463
-23,801
-19,91
-15,828
-11,586
-7,2
-2,703
1,856
6,419
10,934
15,359
19,682
23,912
28,049
32,091
36,034
39,874
43,619
47,29
50,911
54,516
58,14
61,815
65,584
69,509
73,656
78,098
82,883
88,038
93,594
99,591
106,079
113,105
120,693
128,844
137,551
146,799
156,574
166,863
177,633
188,832
200,394
212,247
224,339
236,63
249,071
261,599
274,136
286,608
298,968
311,183
323,228
335,069
346,667
357,974
368,955
379,577
389,808
399,612
408,938
417,721
425,903
433,431
440,259
446,334
451,581
455,917
459,259
461,529
462,671
462,639
461,394
458,911
455,177
450,184
443,94
436,459
427,762
417,887
406,878
394,798
381,73
367,776
353,057
337,704
321,843
305,592
289,065
272,364
255,591
238,857
222,281
205,99
190,103
174,728
159,964
145,897
132,604
120,131
108,495
97,684
87,674
78,444
69,978
62,261
55,272
48,976
43,315
38,221
33,626
29,461
25,663
22,169
18,906
15,828
12,916
10,176
7,639
5,322
3,235
1,383
-0,237
-1,624
-2,771
-3,672
-4,332
-4,756
-4,962
-4,967
-4,774
-4,398
-3,877
-3,261
-2,627
-2,044
-1,561
-1,226
-1,073
-1,124
-1,402
-1,918
-2,663
-3,619
-4,758
-6,04
-7,447
-8,957
-10,538
-12,156
-13,759
-15,3
-16,746
-18,072
-19,257
-20,291
-21,163
-21,868
-22,422
-22,848
-23,174
-23,437
-23,662
-23,864
-24,064
-24,277
-24,525
-24,827
-25,191
-25,62
-26,118
-26,687
-27,329
-28,048
-28,833
-29,675
-30,56
-31,472
-32,401
-33,344
-34,293
-35,248
-36,205
-37,166
-38,133
-39,113
-40,111
-41,13
-42,171
-43,235
-44,327
-45,449
-46,605
-47,799
-49,031
-50,303
-51,614
-52,966
-54,354
-55,777
-57,23
-58,709
-60,208
-61,724
-63,251
-64,785
-66,321
-67,854
-69,379
-70,889
-72,378
-73,84
-75,269
-76,655
-77,994
-79,276
-80,497
-81,649
-82,728
-83,726
-84,64
-85,464
-86,196
-86,83
-87,364
-87,795
-88,122
-88,343
-88,458
-88,467
-88,373
-88,177
-87,883
-87,493
-87,014
-86,448
-85,8
-85,076
-84,28
-83,419
-82,498
-81,524
-80,503
-79,446
-78,359
-77,255
-76,143
-75,033
-73,934
-72,854
-71,802
-70,783
-69,804
-68,869
-67,982
-67,148
-66,374
-65,669
-65,04
-64,488
-64,015
-63,616
-63,283
-63,008
-62,782
-62,593
-62,431
-62,291
-62,17
-62,074
-62,012
-61,985
-61,988
-62,009
-62,033
-62,051
-62,062
-62,065
-62,073
-62,095
-62,146
-62,254
-62,443
-62,724
-63,1
-63,547
-64,031
-64,528
-65,021
-65,505
-65,981
-66,44
-66,863
-67,228
-67,504
-67,655
-67,636
-67,374
-66,8
-65,858
-64,519
-62,79
-60,708
-58,302
-55,595
-52,61
-49,362
-45,885
-42,228
-38,438
-34,574
-30,707
-26,925
-23,35
-20,119
-17,351
-15,136
-13,524
-12,529
-12,166
-12,454
-13,403
-15,025
-17,314
-20,246
-23,799
-27,943
-32,628
-37,782
-43,294
-49,019
-54,824
-60,601
-66,263
-71,755
-77,018
-81,987
-86,603
-90,805
-94,547
-97,797
-100,521
-102,699
-104,333
-105,451
-106,117
-106,431
-106,495
-106,414
-106,294
-106,23
-106,337
-106,712
-107,484
-108,83
-110,853
-113,585
-116,953
-120,708
-124,577
-128,334
-131,646
-134,094
-135,419
-135,507
-134,626
-133,541
-132,956
-133,457
-135,615
-139,818
-146,233
-154,665
-164,037
-172,375
-177,577
-177,453
-169,935
-153,34
-126,004
-86,873
-36,193
24,58
93,119
166,326
240,866
313,198
379,014
434,235
475,538
500,387
507,562
496,849
468,539
423,921
365,67
297,009
221,719
143,825
66,565
-6,979
-73,651
-131,088
-177,785
-212,782
-236,255
-249
-251,536
-245,1
-231,7
-213,272
-191,897
-169,743
-148,23
-128,65
-112,694
-101,226
-94,298
-91,74
-92,797
-96,358
-101,645
-107,611
-112,701
-115,993
-117,09
-115,802
-112,493
-107,722
-101,885
-95,656
-89,99
-85,43
-82,249
-80,562
-80,138
-80,723
-82,135
-84,042
-86,053
-87,936
-89,532
-90,754
-91,618
-92,098
-92,148
-91,758
-90,91
-89,585
-87,772
-85,458
-82,638
-79,326
-75,544
-71,315
-66,66
-61,6
-56,156
-50,358
-44,235
-37,822
-31,157
-24,279
-17,245
-10,103
-2,885
4,388
11,704
19,049
26,403
33,733
41,025
48,272
55,473
62,635
69,762
76,859
83,94
91,032
98,165
105,36
112,633
119,98
127,405
134,915
142,524
150,261
158,144
166,169
174,328
182,609
190,996
199,48
208,056
216,69
225,355
234,032
242,694
251,338
259,955
268,517
276,986
285,307
293,42
301,286
308,872
316,131
323,018
329,46
335,365
340,663
345,278
349,122
352,109
354,133
355,078
354,865
353,436
350,746
346,764
341,444
334,729
326,592
317,029
306,066
293,772
280,21
265,459
249,634
232,866
215,323
197,193
178,639
159,804
140,837
121,886
103,125
84,749
66,931
49,818
33,545
18,217
3,939
-9,207
-21,183
-31,988
-41,652
-50,229
-57,763
-64,288
-69,858
-74,541
-78,429
-81,641
-84,284
-86,459
-88,275
-89,839
-91,262
-92,638
-94,025
-95,454
-96,937
-98,477
-100,081
-101,758
-103,503
-105,302
-107,132
-108,964
-110,773
-112,532
-114,207
-115,756
-117,134
-118,311
-119,277
-120,038
-120,607
-120,999
-121,231
-121,322
-121,3
-121,191
-121,019
-120,808
-120,575
-120,342
-120,132
-119,97
-119,883
-119,888
-119,995
-120,207
-120,525
-120,947
-121,468
-122,08
-122,769
-123,525
-124,337
-125,196
-126,095
-127,024
-127,971
-128,926
-129,876
-130,811
-131,72
-132,595
-133,426
-134,203
-134,92
-135,57
-136,148
-136,648
-137,063
-137,39
-137,622
-137,756
-137,789
-137,717
-137,538
-137,251
-136,856
-136,354
-135,747
-135,036
-134,226
-133,319
-132,319
-131,233
-130,063
-128,817
-127,499
-126,116
-124,674
-123,18
-121,641
-120,063
-118,454
-116,821
-115,172
-113,512
-111,849
-110,191
-108,542
-106,911
-105,303
-103,725
-102,181
-100,678
-99,22
-97,813
-96,46
-95,167
-93,935
-92,769
-91,67
-90,641
-89,684
-88,8
-87,99
-87,255
-86,594
-86,007
-85,495
-85,056
-84,689
-84,393
-84,165
-84,005
-83,909
-83,874
-83,898
-83,978
-84,109
-84,289
-84,513
-84,778
-85,077
-85,408
-85,765
-86,142
-86,536
-86,939
-87,347
-87,754
-88,154
-88,542
-88,912
-89,259
-89,577
-89,86
-90,104
-90,304
-90,454
-90,551
-90,589
-90,564
-90,473
-90,312
-90,078
-89,767
-89,377
-88,905
-88,35
-87,71
-86,984
-86,17
-85,269
-84,281
-83,206
-82,045
-80,8
-79,473
-78,067
-76,583
-75,026
-73,4
-71,707
-69,954
-68,143
-66,28
-64,37
-62,418
-60,427
-58,405
-56,355
-54,283
-52,192
-50,089
-47,978
-45,863
-43,748
-41,639
-39,538
-37,451
-35,38
-33,33
-31,303
-29,303
-27,332
-25,393
-23,489
-21,621
-19,79
-17,998
-16,245
-14,532
-12,86
-11,227
-9,635
-8,082
-6,568
-5,092
-3,653
-2,252
-0,886
0,444
1,739
2,998
4,224
5,415
6,571
7,691
8,774
9,818
10,821
11,783
12,699
13,568
14,386
15,149
15,854
16,5
17,08
17,591
18,026
18,38
18,648
18,829
18,916
18,906
18,792
18,571
18,243
17,81
17,27
16,616
15,843
14,944
13,919
12,77
11,497
10,095
8,562
6,896
5,105
3,201
1,19
-0,922
-3,134
-5,445
-7,838
-10,276
-12,724
-15,144
-17,504
-19,776
-21,914
-23,865
-25,58
-27,019
-28,165
-29,007
-29,529
-29,716
-29,558
-29,057
-28,24
-27,159
-25,876
-24,466
-23,015
-21,619
-20,404
-19,491
-19,014
-19,136
-19,934
-21,417
-23,507
-25,975
-28,577
-31,123
-33,326
-34,82
-35,387
-34,928
-33,668
-32,286
-31,384
-31,439
-32,937
-36,215
-41,422
-48,426
-56,315
-63,339
-67,646
-67,292
-60,411
-45,492
-21,027
14,007
59,505
114,264
176,289
242,87
311,02
377,565
438,607
490,348
529,569
553,747
561,544
552,473
526,599
484,958
429,897
364,518
292,586
218,052
144,219
74,455
12,03
-40,568
-81,641
-110,536
-127,781
-134,298
-131,048
-119,856
-102,994
-82,743
-61,544
-41,154
-22,645
-7,183
4,267
11,538
14,897
15,031
13,09
9,876
6,039
2,588
0,338
-0,346
0,672
3,126
6,444
10,251
14,145
17,497
19,889
21,137
21,175
20,194
18,513
16,365
14,035
11,882
10,127
8,904
8,311
8,354
9,025
10,335
12,25
14,713
17,694
21,158
25,067
29,379
34,02
38,913
44,001
49,235
54,585
60,029
65,542
71,089
76,651
82,209
87,741
93,225
98,628
103,916
109,079
114,126
119,075
123,945
128,744
133,48
138,167
142,815
147,435
152,043
156,654
161,294
166,017
170,876
175,929
181,236
186,833
192,741
198,982
205,568
212,507
219,801
227,439
235,412
243,722
252,37
261,345
270,613
280,107
289,759
299,509
309,282
319,013
328,638
338,076
347,257
356,127
364,629
372,712
380,313
387,344
393,714
399,353
404,202
408,22
411,362
413,567
414,794
415,022
414,244
412,474
409,715
405,956
401,195
395,442
388,719
381,07
372,543
363,166
352,982
342,051
330,452
318,292
305,656
292,61
279,207
265,498
251,551
237,448
223,268
209,078
194,953
180,971
167,23
153,838
140,872
128,384
116,395
104,909
93,939
83,511
73,649
64,364
55,653
47,505
39,913
32,867
26,34
20,28
14,609
9,243
4,127
-0,774
-5,475
-9,984
-14,313
-18,477
-22,475
-26,303
-29,952
-33,415
-36,693
-39,783
-42,669
-45,317
-47,678
-49,709
-51,383
-52,688
-53,617
-54,172
-54,355
-54,176
-53,655
-52,819
-51,691
-50,29
-48,632
-46,738
-44,634
-42,353
-39,933
-37,406
-34,802
-32,145
-29,459
-26,765
-24,084
-21,43
-18,813
-16,245
-13,736
-11,3
-8,951
-6,702
-4,564
-2,545
-0,655
1,097
2,702
4,153
5,443
6,566
7,516
8,288
8,878
9,28
9,494
9,518
9,354
9,001
8,463
7,743
6,845
5,774
4,536
3,137
1,585
-0,112
-1,948
-3,912
-5,997
-8,193
-10,491
-12,88
-15,352
-17,896
-20,503
-23,162
-25,864
-28,599
-31,358
-34,133
-36,914
-39,695
-42,468
-45,225
-47,961
-50,669
-53,345
-55,984
-58,581
-61,133
-63,636
-66,089
-68,49
-70,837
-73,13
-75,368
-77,552
-79,683
-81,761
-83,787
-85,764
-87,692
-89,573
-91,41
-93,204
-94,958
-96,672
-98,349
-99,989
-101,595
-103,166
-104,704
-106,207
-107,676
-109,109
-110,506
-111,865
-113,184
-114,46
-115,691
-116,874
-118,006
-119,084
-120,102
-121,058
-121,947
-122,765
-123,507
-124,169
-124,746
-125,233
-125,627
-125,924
-126,118
-126,207
-126,186
-126,054
-125,807
-125,444
-124,963
-124,364
-123,646
-122,811
-121,86
-120,795
-119,619
-118,337
-116,952
-115,469
-113,895
-112,236
-110,498
-108,689
-106,817
-104,89
-102,917
-100,905
-98,866
-96,806
-94,736
-92,665
-90,602
-88,556
-86,536
-84,551
-82,61
-80,72
-78,889
-77,124
-75,432
-73,818
-72,289
-70,849
-69,501
-68,248
-67,092
-66,035
-65,076
-64,215
-63,452
-62,783
-62,206
-61,717
-61,312
-60,987
-60,736
-60,554
-60,434
-60,37
-60,355
-60,383
-60,447
-60,54
-60,655
-60,785
-60,924
-61,064
-61,2
-61,325
-61,434
-61,521
-61,58
-61,608
-61,6
-61,554
-61,465
-61,333
-61,155
-60,932
-60,663
-60,348
-59,989
-59,588
-59,147
-58,669
-58,159
-57,618
-57,053
-56,468
-55,868
-55,257
-54,641
-54,025
-53,414
-52,815
-52,23
-51,667
-51,129
-50,622
-50,151
-49,72
-49,334
-48,998
-48,714
-48,488
-48,323
-48,22
-48,183
-48,213
-48,311
-48,478
-48,715
-49,021
-49,396
-49,838
-50,347
-50,92
-51,555
-52,25
-53,001
-53,805
-54,66
-55,561
-56,505
-57,488
-58,507
-59,558
-60,637
-61,741
-62,865
-64,006
-65,157
-66,315
-67,472
-68,625
-69,766
-70,891
-71,994
-73,07
-74,114
-75,122
-76,091
-77,016
-77,895
-78,723
-79,496
-80,209
-80,857
-81,437
-81,942
-82,368
-82,71
-82,963
-83,124
-83,19
-83,157
-83,019
-82,769
-82,403
-81,918
-81,313
-80,591
-79,754
-78,806
-77,756
-76,618
-75,405
-74,13
-72,804
-71,429
-70,009
-68,547
-67,048
-65,517
-63,955
-62,353
-60,699
-58,984
-57,2
-55,338
-53,385
-51,314
-49,105
-46,747
-44,233
-41,575
-38,791
-35,898
-32,916
-29,874
-26,812
-23,787
-20,866
-18,1
-15,542
-13,242
-11,253
-9,647
-8,486
-7,809
-7,648
-8,018
-8,922
-10,374
-12,376
-14,908
-17,939
-21,415
-25,265
-29,436
-33,871
-38,502
-43,26
-48,055
-52,806
-57,453
-61,941
-66,221
-70,242
-73,938
-77,249
-80,142
-82,598
-84,625
-86,247
-87,481
-88,355
-88,921
-89,242
-89,413
-89,534
-89,692
-89,985
-90,5
-91,356
-92,742
-94,781
-97,522
-100,915
-104,734
-108,735
-112,737
-116,468
-119,568
-121,81
-123,048
-123,423
-123,578
-124,118
-125,518
-128,293
-132,735
-138,884
-146,602
-155,091
-162,685
-167,585
-167,862
-161,513
-147,039
-123,144
-88,753
-43,798
10,722
73,172
141,031
211,27
280,952
346,649
404,623
451,699
485,165
502,97
504,308
488,961
457,138
410,27
350,74
281,461
206,082
128,248
51,005
-22,331
-88,502
-145,107
-190,427
-223,728
-245,479
-256,382
-257,101
-249,293
-235,222
-217,219
-197,715
-178,5
-160,609
-145,222
-133,721
-126,635
-123,777
-124,491
-127,643
-132,354
-138,101
-144,016
-148,866
-151,9
-152,846
-151,814
-149,378
-146,04
-142,097
-138,072
-134,678
-132,356
-131,308
-131,541
-132,771
-134,732
-137,234
-139,98
-142,644
-145,018
-146,956
-148,373
-149,261
-149,583
-149,302
-148,431
-146,99
-145,002
-142,486
-139,453
-135,92
-131,932
-127,54
-122,794
-117,73
-112,369
-106,737
-100,866
-94,8
-88,586
-82,254
-75,817
-69,288
-62,675
-55,98
-49,206
-42,341
-35,365
-28,26
-21,007
-13,592
-6,007
1,755
9,705
17,852
26,206
34,771
43,536
52,487
61,606
70,875
80,28
89,802
99,419
109,104
118,832
128,574
138,306
148,011
157,668
167,257
176,762
186,178
195,517
204,805
214,067
223,321
232,575
241,833
251,094
260,359
269,617
278,853
288,036
297,132
306,105
314,924
323,547
331,912
339,929
347,481
354,452
360,73
366,21
370,791
374,371
376,863
378,2
378,336
377,249
374,916
371,309
366,402
360,175
352,636
343,831
333,833
322,725
310,608
297,591
283,802
269,391
254,491
239,22
223,679
207,958
192,161
176,409
160,833
145,568
130,737
116,444
102,781
89,838
77,675
66,329
55,807
46,087
37,156
29,009
21,642
15,053
9,221
4,101
-0,361
-4,228
-7,575
-10,477
-13,018
-15,291
-17,363
-19,278
-21,062
-22,717
-24,251
-25,678
-27,005
-28,241
-29,386
-30,429
-31,363
-32,176
-32,848
-33,349
-33,646
-33,695
-33,472
-32,968
-32,186
-31,141
-29,85
-28,331
-26,607
-24,708
-22,661
-20,495
-18,236
-15,906
-13,534
-11,153
-8,798
-6,507
-4,312
-2,235
-0,297
1,488
3,106
4,549
5,809
6,888
7,782
8,489
9,004
9,325
9,45
9,379
9,116
8,664
8,027
7,209
6,217
5,056
3,734
2,257
0,634
-1,13
-3,025
-5,04
-7,166
-9,391
-11,702
-14,088
-16,536
-19,031
-21,562
-24,116
-26,681
-29,243
-31,793
-34,317
-36,806
-39,248
-41,634
-43,954
-46,199
-48,36
-50,428
-52,398
-54,263
-56,016
-57,654
-59,172
-60,568
-61,841
-62,988
-64,011
-64,909
-65,685
-66,34
-66,879
-67,306
-67,625
-67,842
-67,963
-67,995
-67,946
-67,823
-67,634
-67,388
-67,092
-66,756
-66,388
-65,997
-65,591
-65,18
-64,771
-64,373
-63,995
-63,643
-63,326
-63,05
-62,821
-62,645
-62,526
-62,47
-62,479
-62,557
-62,706
-62,926
-63,218
-63,583
-64,019
-64,523
-65,095
-65,729
-66,424
-67,173
-67,972
-68,816
-69,698
-70,613
-71,554
-72,514
-73,485
-74,461
-75,433
-76,395
-77,337
-78,252
-79,133
-79,972
-80,762
-81,496
-82,167
-82,769
-83,296
-83,742
-84,104
-84,377
-84,557
-84,641
-84,628
-84,514
-84,299
-83,983
-83,566
-83,048
-82,432
-81,717
-80,908
-80,006
-79,015
-77,937
-76,778
-75,542
-74,232
-72,853
-71,412
-69,913
-68,362
-66,765
-65,127
-63,454
-61,751
-60,026
-58,282
-56,527
-54,764
-52,999
-51,236
-49,482
-47,738
-46,011
-44,302
-42,615
-40,953
-39,319
-37,714
-36,141
-34,6
-33,093
-31,621
-30,184
-28,782
-27,416
-26,086
-24,79
-23,529
-22,302
-21,108
-19,945
-18,812
-17,709
-16,633
-15,583
-14,559
-13,557
-12,576
-11,616
-10,674
-9,749
-8,841
-7,947
-7,066
-6,199
-5,343
-4,5
-3,667
-2,845
-2,034
-1,235
-0,448
0,327
1,088
1,835
2,565
3,276
3,969
4,64
5,288
5,912
6,51
7,08
7,62
8,13
8,607
9,05
9,458
9,829
10,161
10,454
10,706
10,917
11,086
11,212
11,295
11,334
11,33
11,281
11,189
11,054
10,876
10,657
10,4
10,106
9,778
9,421
9,039
8,635
8,215
7,783
7,342
6,897
6,451
6,007
5,569
5,14
4,722
4,322
3,943
3,591
3,269
2,984
2,739
2,539
2,39
2,293
2,251
2,267
2,345
2,493
2,714
3,008
3,375
3,81
4,308
4,862
5,461
6,085
6,717
7,342
7,946
8,523
9,071
9,582
10,052
10,473
10,844
11,173
11,472
11,747
12,009
12,266
12,534
12,846
13,225
13,687
14,24
14,875
15,575
16,326
17,108
17,891
18,637
19,291
19,79
20,087
20,134
19,886
19,292
18,284
16,806
14,823
12,307
9,251
5,654
1,515
-3,154
-8,32
-13,938
-19,939
-26,246
-32,791
-39,501
-46,3
-53,107
-59,827
-66,377
-72,688
-78,699
-84,351
-89,58
-94,326
-98,538
-102,19
-105,277
-107,815
-109,834
-111,368
-112,467
-113,194
-113,632
-113,884
-114,048
-114,226
-114,51
-115,019
-115,931
-117,38
-119,446
-122,106
-125,169
-128,391
-131,551
-134,344
-136,384
-137,39
-137,168
-135,815
-133,936
-132,216
-131,316
-131,959
-134,661
-139,691
-147,092
-156,162
-165,238
-172,332
-175,129
-171,166
-158,467
-135,228
-99,994
-52,519
6,204
74,295
148,735
225,946
302,385
373,913
436,264
485,945
520,086
536,761
535,412
516,022
479,148
426,722
361,504
286,735
206,292
123,83
42,627
-33,567
-101,269
-157,961
-201,786
-232,028
-249,05
-253,336
-245,939
-229,216
-205,969
-179,077
-151,466
-125,204
-101,825
-83,093
-70,235
-63,34
-61,848
-64,623
-70,178
-77,432
-85,38
-92,593
-97,8
-100,359
-100,113
-97,403
-92,854
-86,956
-80,196
-73,332
-67,131
-62,049
-58,271
-55,728
-54,189
-53,47
-53,4
-53,701
-54,076
-54,354
-54,462
-54,415
-54,28
-54,065
-53,753
-53,353
-52,879
-52,324
-51,662
-50,833
-49,765
-48,429
-46,82
-44,946
-42,81
-40,395
-37,678
-34,648
-31,307
-27,671
-23,757
-19,576
-15,152
-10,526
-5,755
-0,912
