Lead,Lead I
-58,044
-64,381
-70,675
-76,825
-82,74
-88,333
-93,516
-98,21
-102,361
-105,928
-108,898
-111,281
-113,096
-114,376
-115,178
-115,565
-115,607
-115,388
-114,975
-114,425
-113,793
-113,127
-112,482
-111,908
-111,438
-111,097
-110,895
-110,832
-110,907
-111,11
-111,412
-111,782
-112,182
-112,57
-112,919
-113,208
-113,421
-113,547
-113,57
-113,48
-113,272
-112,949
-112,514
-111,971
-111,326
-110,584
-109,759
-108,87
-107,936
-106,978
-106,011
-105,043
-104,084
-103,141
-102,217
-101,318
-100,444
-99,594
-98,768
-97,967
-97,193
-96,449
-95,733
-95,045
-94,382
-93,741
-93,121
-92,52
-91,937
-91,369
-90,818
-90,281
-89,76
-89,254
-88,764
-88,289
-87,827
-87,376
-86,936
-86,504
-86,079
-85,659
-85,243
-84,83
-84,419
-84,008
-83,598
-83,186
-82,772
-82,355
-81,933
-81,506
-81,07
-80,626
-80,171
-79,706
-79,227
-78,736
-78,23
-77,71
-77,175
-76,623
-76,056
-75,473
-74,873
-74,258
-73,626
-72,979
-72,318
-71,642
-70,954
-70,254
-69,543
-68,823
-68,094
-67,359
-66,617
-65,87
-65,12
-64,368
-63,615
-62,862
-62,112
-61,365
-60,624
-59,891
-59,167
-58,453
-57,753
-57,067
-56,398
-55,746
-55,115
-54,505
-53,918
-53,356
-52,82
-52,311
-51,832
-51,383
-50,966
-50,581
-50,229
-49,913
-49,632
-49,387
-49,18
-49,012
-48,882
-48,793
-48,744
-48,738
-48,773
-48,852
-48,974
-49,141
-49,351
-49,606
-49,906
-50,25
-50,639
-51,071
-51,547
-52,066
-52,626
-53,227
-53,867
-54,544
-55,257
-56,003
-56,78
-57,586
-58,418
-59,274
-60,149
-61,042
-61,947
-62,863
-63,783
-64,706
-65,625
-66,538
-67,44
-68,326
-69,191
-70,031
-70,841
-71,617
-72,354
-73,047
-73,692
-74,286
-74,823
-75,3
-75,715
-76,063
-76,344
-76,553
-76,691
-76,754
-76,744
-76,658
-76,497
-76,261
-75,951
-75,57
-75,118
-74,597
-74,012
-73,364
-72,658
-71,896
-71,083
-70,224
-69,321
-68,381
-67,407
-66,406
-65,382
-64,34
-63,285
-62,223
-61,158
-60,095
-59,039
-57,993
-56,96
-55,944
-54,948
-53,975
-53,025
-52,101
-51,203
-50,333
-49,49
-48,675
-47,884
-47,118
-46,373
-45,648
-44,938
-44,241
-43,552
-42,867
-42,181
-41,491
-40,792
-40,078
-39,346
-38,59
-37,807
-36,992
-36,14
-35,246
-34,306
-33,313
-32,269
-31,174
-30,027
-28,828
-27,577
-26,275
-24,926
-23,537
-22,105
-20,633
-19,12
-17,569
-15,99
-14,394
-12,791
-11,193
-9,607
-8,038
-6,499
-5,002
-3,554
-2,165
-0,837
0,427
1,604
2,672
3,612
4,405
5,041
5,515
5,815
5,93
5,85
5,563
5,066
4,362
3,432
2,26
0,833
-0,868
-2,83
-5,032
-7,459
-10,092
-12,908
-15,887
-18,993
-22,186
-25,436
-28,705
-31,966
-35,195
-38,345
-41,37
-44,222
-46,833
-49,175
-51,252
-53,062
-54,638
-56,007
-57,142
-58,118
-59,098
-60,22
-61,663
-63,509
-65,649
-68,144
-71,228
-74,892
-78,987
-83,213
-86,951
-89,951
-92,42
-94,279
-95,25
-95,313
-94,54
-93,527
-93,513
-95,134
-98,353
-103,159
-109,434
-116,941
-125,284
-133,107
-138,142
-138,439
-132,472
-119,102
-97,598
-67,181
-27,428
20,934
76,129
135,845
197,449
258,502
316,661
369,241
413,723
448,136
471,174
482,361
481,812
469,872
447,213
414,857
374,016
326,234
273,115
216,075
156,625
96,182
36,106
-21,841
-75,786
-124,168
-165,496
-198,472
-222,38
-236,58
-240,732
-235,576
-222,485
-203,123
-179,653
-154,301
-128,966
-105,703
-86,349
-71,743
-62,101
-57,145
-55,917
-57,265
-60,063
-62,892
-64,499
-64,27
-61,947
-57,634
-51,866
-45,244
-38,418
-32,222
-27,272
-23,826
-21,972
-21,577
-22,35
-24,025
-26,276
-28,692
-31,001
-33,049
-34,725
-36,014
-36,907
-37,361
-37,368
-36,955
-36,136
-34,933
-33,38
-31,492
-29,309
-26,888
-24,281
-21,541
-18,715
-15,835
-12,936
-10,053
-7,22
-4,472
-1,847
0,637
2,966
5,138
7,165
9,061
10,844
12,539
14,175
15,779
17,376
18,987
20,63
22,327
24,101
25,977
27,983
30,141
32,47
34,985
37,697
40,615
43,746
47,094
50,659
54,442
58,447
62,676
67,133
71,818
76,732
81,87
87,227
92,797
98,57
104,536
110,687
117,012
123,504
130,151
136,939
143,855
150,88
157,991
165,163
172,364
179,562
186,727
193,835
200,863
207,796
214,616
221,308
227,859
234,25
240,461
246,479
252,283
257,859
263,199
268,3
273,171
277,825
282,265
286,484
290,471
294,199
297,642
300,766
303,528
305,896
307,84
309,334
310,364
310,915
310,96
310,475
309,423
307,76
305,464
302,521
298,926
294,695
289,855
284,443
278,519
272,135
265,335
258,163
250,65
242,828
234,741
226,431
217,947
209,349
200,687
192,001
183,337
174,718
166,164
157,683
149,268
140,912
132,623
124,407
116,282
108,265
100,37
92,612
85,005
77,559
70,281
63,181
56,266
49,547
43,041
36,765
30,744
25,002
19,551
14,406
9,572
5,053
0,851
-3,036
-6,613
-9,885
-12,857
-15,535
-17,924
-20,032
-21,87
-23,449
-24,784
-25,889
-26,778
-27,468
-27,971
-28,304
-28,479
-28,512
-28,414
-28,198
-27,878
-27,468
-26,981
-26,432
-25,832
-25,195
-24,533
-23,858
-23,182
-22,513
-21,863
-21,239
-20,649
-20,1
-19,6
-19,152
-18,763
-18,436
-18,173
-17,978
-17,852
-17,796
-17,81
-17,893
-18,045
-18,264
-18,547
-18,892
-19,296
-19,756
-20,269
-20,83
-21,436
-22,082
-22,765
-23,481
-24,224
-24,99
-25,775
-26,574
-27,383
-28,198
-29,014
-29,827
-30,634
-31,43
-32,214
-32,981
-33,729
-34,455
-35,157
-35,832
-36,48
-37,098
-37,686
-38,243
-38,767
-39,261
-39,722
-40,152
-40,552
-40,921
-41,261
-41,573
-41,858
-42,117
-42,352
-42,564
-42,756
-42,928
-43,082
-43,22
-43,345
-43,457
-43,56
-43,654
-43,741
-43,824
-43,904
-43,984
-44,065
-44,148
-44,237
-44,331
-44,433
-44,544
-44,664
-44,796
-44,939
-45,094
-45,262
-45,443
-45,636
-45,842
-46,061
-46,292
-46,535
-46,788
-47,052
-47,324
-47,605
-47,892
-48,185
-48,483
-48,784
-49,087
-49,39
-49,693
-49,994
-50,292
-50,585
-50,871
-51,15
-51,419
-51,678
-51,924
-52,158
-52,377
-52,581
-52,769
-52,941
-53,096
-53,233
-53,353
-53,456
-53,542
-53,612
-53,666
-53,706
-53,732
-53,747
-53,751
-53,746
-53,734
-53,717
-53,695
-53,672
-53,649
-53,627
-53,608
-53,594
-53,587
-53,589
-53,601
-53,625
-53,663
-53,715
-53,784
-53,87
-53,974
-54,098
-54,241
-54,406
-54,59
-54,796
-55,022
-55,269
-55,534
-55,818
-56,119
-56,435
-56,764
-57,104
-57,454
-57,809
-58,168
-58,528
-58,887
-59,241
-59,589
-59,927
-60,252
-60,562
-60,855
-61,128
-61,378
-61,604
-61,803
-61,974
-62,114
-62,222
-62,297
-62,337
-62,341
-62,309
-62,24
-62,132
-61,987
-61,803
-61,583
-61,325
-61,032
-60,705
-60,345
-59,954
-59,534
-59,088
-58,617
-58,125
-57,613
-57,085
-56,542
-55,987
-55,423
-54,852
-54,277
-53,699
-53,12
-52,542
-51,967
-51,396
-50,83
-50,271
-49,72
-49,178
-48,646
-48,123
-47,612
-47,113
-46,625
-46,149
-45,685
-45,233
-44,792
-44,362
-43,941
-43,53
-43,127
-42,732
-42,342
-41,958
-41,577
-41,2
-40,825
-40,452
-40,081
-39,71
-39,342
-38,975
-38,61
-38,249
-37,891
-37,539
-37,194
-36,856
-36,528
-36,211
-35,906
-35,616
-35,342
-35,086
-34,85
-34,636
-34,446
-34,282
-34,145
-34,038
-33,963
-33,921
-33,914
-33,944
-34,012
-34,12
-34,268
-34,457
-34,687
-34,956
-35,264
-35,609
-35,989
-36,4
-36,841
-37,307
-37,797
-38,306
-38,832
-39,369
-39,915
-40,463
-41,008
-41,545
-42,065
-42,564
-43,033
-43,465
-43,853
-44,191
-44,471
-44,687
-44,83
-44,891
-44,861
-44,736
-44,512
-44,185
-43,756
-43,226
-42,6
-41,885
-41,091
-40,224
-39,292
-38,298
-37,244
-36,133
-34,967
-33,752
-32,486
-31,164
-29,776
-28,309
-26,749
-25,082
-23,291
-21,35
-19,238
-16,943
-14,458
-11,787
-8,94
-5,934
-2,791
0,465
3,798
7,158
10,493
13,739
16,836
19,726
22,344
24,62
26,492
27,906
28,82
29,208
29,053
28,347
27,095
25,311
23,022
20,264
17,082
13,53
9,659
5,52
1,166
-3,339
-7,934
-12,56
-17,158
-21,678
-26,072
-30,301
-34,332
-38,141
-41,705
-45,005
-48,022
-50,737
-53,138
-55,207
-56,936
-58,336
-59,426
-60,24
-60,83
-61,241
-61,529
-61,769
-62,033
-62,406
-62,981
-63,827
-65,052
-66,806
-69,167
-72,15
-75,668
-79,459
-83,264
-86,884
-90,019
-92,322
-93,591
-93,732
-92,966
-91,954
-91,249
-91,22
-92,229
-94,465
-97,88
-102,219
-106,56
-109,2
-108,452
-102,685
-90,329
-70,257
-41,519
-3,408
43,807
98,787
159,728
224,169
289,29
352,49
410,786
460,936
500,308
526,923
539,345
537,276
521,071
491,111
448,616
395,67
334,557
267,858
198,337
128,099
59,035
-6,481
-66,334
-118,936
-162,954
-197,563
-222,575
-237,662
-242,578
-238,124
-225,754
-207,168
-184,418
-159,614
-134,448
-110,819
-90,869
-75,772
-65,845
-60,954
-60,307
-62,765
-67,402
-72,966
-77,777
-80,814
-81,635
-80,079
-76,54
-71,6
-65,686
-59,471
-53,863
-49,363
-46,204
-44,453
-43,858
-44,151
-45,137
-46,488
-47,838
-48,97
-49,745
-50,106
-50,113
-49,797
-49,172
-48,288
-47,192
-45,92
-44,504
-42,954
-41,263
-39,431
-37,471
-35,408
-33,264
-31,061
-28,816
-26,54
-24,242
-21,93
-19,607
-17,272
-14,925
-12,561
-10,175
-7,768
-5,348
-2,925
-0,508
1,908
4,329
6,766
9,229
11,725
14,265
16,864
19,536
22,294
25,149
28,107
31,178
34,377
37,72
41,224
44,905
48,77
52,825
57,075
61,522
66,168
71,01
76,042
81,259
86,655
92,227
97,97
103,879
109,942
116,151
122,494
128,961
135,545
142,232
149,006
155,849
162,745
169,672
176,61
183,533
190,413
197,221
203,934
210,527
216,981
223,271
229,372
235,264
240,923
246,333
251,486
256,375
260,994
265,351
269,453
273,314
276,954
280,378
283,586
286,578
289,346
291,89
294,205
296,279
298,104
299,666
300,946
301,921
302,558
302,802
302,6
301,899
300,64
298,791
296,327
293,219
289,451
285,006
279,872
274,047
267,529
260,306
252,377
243,753
234,472
224,604
214,221
203,393
192,197
180,695
168,952
157,044
145,043
133,015
121,031
109,165
97,498
86,136
75,18
64,706
54,765
45,376
36,553
28,312
20,663
13,612
7,153
1,268
-4,064
-8,854
-13,128
-16,925
-20,302
-23,341
-26,123
-28,706
-31,132
-33,425
-35,607
-37,703
-39,73
-41,697
-43,604
-45,444
-47,219
-48,933
-50,584
-52,159
-53,631
-54,962
-56,118
-57,082
-57,842
-58,397
-58,747
-58,894
-58,847
-58,623
-58,243
-57,725
-57,087
-56,34
-55,5
-54,587
-53,626
-52,645
-51,668
-50,711
-49,791
-48,918
-48,104
-47,356
-46,679
-46,072
-45,534
-45,066
-44,669
-44,347
-44,098
-43,922
-43,817
-43,781
-43,81
-43,904
-44,06
-44,275
-44,545
-44,867
-45,241
-45,662
-46,128
-46,636
-47,181
-47,758
-48,363
-48,992
-49,638
-50,298
-50,966
-51,639
-52,311
-52,979
-53,64
-54,29
-54,926
-55,544
-56,144
-56,721
-57,275
-57,802
-58,302
-58,774
-59,215
-59,626
-60,005
-60,352
-60,668
-60,952
-61,204
-61,426
-61,617
-61,78
-61,914
-62,022
-62,105
-62,164
-62,202
-62,219
-62,219
-62,203
-62,173
-62,132
-62,08
-62,021
-61,955
-61,885
-61,812
-61,738
-61,664
-61,592
-61,524
-61,46
-61,403
-61,354
-61,313
-61,283
-61,263
-61,255
-61,26
-61,279
-61,312
-61,359
-61,423
-61,502
-61,597
-61,708
-61,836
-61,979
-62,138
-62,312
-62,501
-62,703
-62,918
-63,145
-63,383
-63,631
-63,887
-64,15
-64,42
-64,693
-64,969
-65,246
-65,523
-65,796
-66,065
-66,327
-66,581
-66,824
-67,055
-67,271
-67,47
-67,651
-67,811
-67,949
-68,062
-68,149
-68,209
-68,239
-68,24
-68,209
-68,147
-68,052
-67,924
-67,765
-67,572
-67,348
-67,093
-66,807
-66,492
-66,148
-65,779
-65,385
-64,968
-64,53
-64,075
-63,603
-63,118
-62,623
-62,12
-61,611
-61,1
-60,59
-60,083
-59,582
-59,09
-58,61
-58,144
-57,695
-57,265
-56,855
-56,469
-56,106
-55,769
-55,458
-55,175
-54,918
-54,69
-54,489
-54,315
-54,168
-54,045
-53,948
-53,872
-53,818
-53,782
-53,764
-53,759
-53,768
-53,785
-53,81
-53,84
-53,872
-53,903
-53,931
-53,954
-53,968
-53,973
-53,966
-53,944
-53,907
-53,852
-53,779
-53,687
-53,575
-53,443
-53,29
-53,116
-52,923
-52,71
-52,479
-52,231
-51,966
-51,688
-51,397
-51,096
-50,787
-50,474
-50,158
-49,842
-49,53
-49,225
-48,93
-48,647
-48,381
-48,133
-47,907
-47,706
-47,532
-47,388
-47,275
-47,195
-47,151
-47,143
-47,172
-47,239
-47,345
-47,488
-47,67
-47,889
-48,145
-48,436
-48,761
-49,119
-49,506
-49,922
-50,362
-50,824
-51,304
-51,799
-52,305
-52,816
-53,329
-53,837
-54,336
-54,82
-55,284
-55,722
-56,128
-56,497
-56,823
-57,099
-57,322
-57,485
-57,584
-57,612
-57,567
-57,442
-57,233
-56,938
-56,553
-56,073
-55,498
-54,823
-54,046
-53,167
-52,184
-51,095
-49,901
-48,601
-47,197
-45,691
-44,084
-42,38
-40,583
-38,697
-36,728
-34,681
-32,564
-30,384
-28,148
-25,864
-23,543
-21,194
-18,827
-16,452
-14,081
-11,726
-9,402
-7,12
-4,895
-2,74
-0,67
1,3
3,159
4,893
6,491
7,942
9,233
10,354
11,292
12,037
12,578
12,908
13,02
12,907
12,565
11,995
11,199
10,18
8,937
7,466
5,763
3,827
1,662
-0,729
-3,332
-6,135
-9,116
-12,245
-15,486
-18,805
-22,167
-25,542
-28,904
-32,218
-35,443
-38,528
-41,419
-44,072
-46,448
-48,512
-50,253
-51,67
-52,778
-53,623
-54,248
-54,707
-55,071
-55,404
-55,786
-56,31
-57,048
-58,121
-59,69
-61,848
-64,626
-67,94
-71,528
-75,133
-78,542
-81,453
-83,537
-84,563
-84,413
-83,374
-82,139
-81,324
-81,408
-82,703
-85,31
-89,241
-94,249
-99,269
-102,558
-102,279
-96,598
-84,165
-64,065
-35,297
2,734
49,545
103,787
163,425
225,8
288,515
349,19
404,752
452,137
488,844
512,786
522,71
518,313
499,399
466,349
420,76
364,845
301,194
232,889
162,935
93,964
28,707
-30,564
-82,478
-126,116
-161
-187,314
-205,716
-216,979
-222,165
-222,156
-217,41
-208,572
-196,527
-182,064
-165,74
-148,139
-129,828
-111,7
-95,119
-81,013
-69,706
-61,268
-55,646
-52,613
-51,818
-52,475
-53,291
-53,363
-52,317
-50,027
-46,623
-42,32
-37,335
-32,158
-27,555
-24,007
-21,676
-20,554
-20,414
-21,025
-22,233
-23,782
-25,334
-26,666
-27,655
-28,249
-28,496
-28,423
-28,011
-27,257
-26,18
-24,799
-23,15
-21,268
-19,171
-16,89
-14,464
-11,926
-9,322
-6,685
-4,039
-1,399
1,219
3,799
6,314
8,732
11,036
13,221
15,292
17,264
19,15
20,968
22,741
24,497
26,264
28,066
29,922
31,848
33,862
35,985
38,242
40,66
43,26
46,058
49,068
52,3
55,761
59,459
63,393
67,562
71,962
76,592
81,449
86,53
91,831
97,343
103,057
108,963
115,048
121,3
127,705
134,246
140,909
147,675
154,528
161,45
168,422
175,423
182,433
189,429
196,39
203,291
210,111
216,826
223,41
229,842
236,097
242,152
247,983
253,568
258,886
263,915
268,634
273,025
277,069
280,75
284,053
286,964
289,469
291,557
293,22
294,447
295,232
295,568
295,448
294,869
293,829
292,328
290,366
287,946
285,072
281,749
277,986
273,794
269,182
264,16
258,736
252,925
246,745
240,219
233,373
226,232
218,82
211,165
203,297
195,244
187,028
178,667
170,171
161,558
152,85
144,074
135,264
126,446
117,639
108,86
100,122
91,439
82,823
74,278
65,801
57,402
49,104
40,942
32,964
25,207
17,696
10,448
3,467
-3,239
-9,662
-15,794
-21,624
-27,134
-32,305
-37,104
-41,486
-45,43
-48,928
-51,993
-54,66
-56,954
-58,893
-60,488
-61,74
-62,645
-63,192
-63,375
-63,197
-62,675
-61,839
-60,736
-59,428
-57,973
-56,42
-54,804
-53,139
-51,44
-49,724
-48,012
-46,337
-44,741
-43,279
-41,997
-40,93
-40,102
-39,519
-39,174
-39,042
-39,089
-39,272
-39,558
-39,932
-40,381
-40,901
-41,48
-42,099
-42,732
-43,346
-43,91
-44,403
-44,805
-45,106
-45,306
-45,414
-45,452
-45,456
-45,452
-45,454
-45,472
-45,507
-45,563
-45,647
-45,764
-45,921
-46,124
-46,377
-46,685
-47,051
-47,476
-47,954
-48,472
-49,012
-49,559
-50,105
-50,643
-51,171
-51,688
-52,19
-52,678
-53,156
-53,625
-54,086
-54,539
-54,983
-55,417
-55,844
-56,265
-56,685
-57,107
-57,533
-57,964
-58,401
-58,845
-59,297
-59,756
-60,219
-60,685
-61,155
-61,626
-62,099
-62,573
-63,048
-63,523
-63,998
-64,472
-64,944
-65,413
-65,877
-66,336
-66,786
-67,228
-67,659
-68,078
-68,483
-68,872
-69,245
-69,601
-69,938
-70,256
-70,553
-70,829
-71,083
-71,314
-71,522
-71,706
-71,866
-72,002
-72,114
-72,203
-72,268
-72,31
-72,329
-72,325
-72,3
-72,252
-72,184
-72,096
-71,988
-71,862
-71,72
-71,562
-71,39
-71,205
-71,009
-70,804
-70,591
-70,371
-70,146
-69,918
-69,687
-69,456
-69,226
-68,998
-68,773
-68,554
-68,341
-68,137
-67,941
-67,755
-67,58
-67,418
-67,27
-67,136
-67,017
-66,915
-66,83
-66,763
-66,715
-66,686
-66,676
-66,686
-66,715
-66,764
-66,831
-66,918
-67,022
-67,145
-67,284
-67,44
-67,611
-67,797
-67,995
-68,206
-68,426
-68,655
-68,892
-69,133
-69,378
-69,625
-69,872
-70,118
-70,359
-70,596
-70,825
-71,045
-71,254
-71,451
-71,632
-71,798
-71,946
-72,075
-72,184
-72,272
-72,338
-72,381
-72,401
-72,398
-72,37
-72,319
-72,245
-72,147
-72,027
-71,885
-71,724
-71,544
-71,348
-71,138
-70,915
-70,683
-70,444
-70,2
-69,953
-69,706
-69,461
-69,22
-68,986
-68,761
-68,548
-68,348
-68,164
-67,997
-67,85
-67,723
-67,618
-67,536
-67,477
-67,442
-67,43
-67,443
-67,48
-67,54
-67,622
-67,725
-67,847
-67,985
-68,137
-68,298
-68,465
-68,633
-68,796
-68,949
-69,089
-69,208
-69,304
-69,37
-69,403
-69,399
-69,354
-69,262
-69,12
-68,92
-68,658
-68,329
-67,927
-67,446
-66,882
-66,231
-65,49
-64,658
-63,733
-62,713
-61,596
-60,377
-59,054
-57,629
-56,106
-54,487
-52,78
-50,993
-49,142
-47,249
-45,329
-43,395
-41,455
-39,512
-37,571
-35,638
-33,72
-31,82
-29,944
-28,092
-26,272
-24,493
-22,757
-21,059
-19,385
-17,707
-16,011
-14,298
-12,575
-10,859
-9,169
-7,53
-5,972
-4,538
-3,264
-2,178
-1,303
-0,648
-0,237
-0,105
-0,296
-0,864
-1,847
-3,26
-5,109
-7,388
-10,071
-13,122
-16,48
-20,066
-23,809
-27,653
-31,546
-35,448
-39,303
-43,039
-46,578
-49,844
-52,768
-55,302
-57,417
-59,098
-60,357
-61,233
-61,782
-62,083
-62,226
-62,285
-62,343
-62,486
-62,788
-63,357
-64,342
-65,837
-67,89
-70,465
-73,373
-76,402
-79,36
-81,972
-83,919
-84,986
-85,04
-84,202
-82,98
-81,885
-81,344
-81,789
-83,465
-86,39
-90,39
-94,766
-98,134
-98,982
-95,738
-86,822
-71,068
-47,588
-15,758
24,307
71,581
124,566
181,206
239,003
295,612
348,565
395,242
433,371
461,175
477,216
480,72
471,623
450,029
416,548
372,459
319,403
259,429
195,053
128,82
63,016
0,018
-57,909
-108,856
-151,235
-184,084
-207,304
-221,287
-226,508
-223,682
-213,928
-198,724
-179,854
-159,001
-137,344
-115,818
-95,521
-77,71
-63,391
-52,969
-46,243
-42,731
-42,077
-43,902
-47,519
-51,791
-55,475
-57,811
-58,562
-57,79
-55,615
-52,168
-47,708
-42,817
-38,272
-34,548
-31,791
-29,949
-28,84
-28,313
-28,257
-28,446
-28,558
-28,401
-27,89
-27,022
-25,889
-24,552
-23,02
-21,325
-19,498
-17,548
-15,494
-13,351
-11,111
-8,792
-6,409
-3,973
-1,511
0,959
3,428
5,886
8,337
10,785
13,223
15,641
18,021
20,341
22,589
24,765
26,87
28,91
30,896
32,835
34,744
36,643
38,547
40,47
42,421
44,41
46,45
48,561
50,763
53,082
55,539
58,148
60,924
63,878
67,022
70,362
73,902
77,642
81,585
85,737
90,105
94,694
99,504
104,53
109,766
115,198
120,814
126,596
132,518
138,56
144,698
150,914
157,195
163,528
169,892
176,268
182,628
188,946
195,209
201,404
207,518
213,548
219,493
225,366
231,191
236,992
242,78
248,557
254,31
260,021
265,675
271,258
276,755
282,15
287,411
292,503
297,389
302,028
306,365
310,328
313,821
316,746
319,026
320,601
321,429
321,483
320,736
319,165
316,751
313,483
309,36
304,391
298,583
291,952
284,53
276,373
267,573
258,232
248,44
238,278
227,815
217,114
206,241
195,263
184,248
173,259
162,368
151,64
141,141
130,94
121,093
111,637
102,583
93,927
85,662
77,789
70,306
63,213
56,503
50,162
44,176
38,522
33,167
28,079
23,224
18,566
14,07
9,712
5,479
1,368
-2,616
-6,473
-10,2
-13,793
-17,248
-20,553
-23,698
-26,666
-29,436
-31,989
-34,309
-36,383
-38,199
-39,751
-41,036
-42,059
-42,834
-43,374
-43,69
-43,798
-43,714
-43,456
-43,044
-42,5
-41,85
-41,116
-40,316
-39,47
-38,593
-37,7
-36,804
-35,915
-35,039
-34,183
-33,352
-32,554
-31,795
-31,078
-30,408
-29,787
-29,217
-28,701
-28,239
-27,833
-27,486
-27,198
-26,971
-26,805
-26,702
-26,663
-26,686
-26,77
-26,914
-27,114
-27,368
-27,674
-28,027
-28,424
-28,862
-29,337
-29,845
-30,383
-30,948
-31,536
-32,144
-32,768
-33,405
-34,052
-34,707
-35,366
-36,027
-36,689
-37,349
-38,005
-38,655
-39,299
-39,935
-40,562
-41,178
-41,783
-42,376
-42,956
-43,524
-44,079
-44,62
-45,148
-45,664
-46,167
-46,658
-47,138
-47,607
-48,066
-48,515
-48,954
-49,385
-49,808
-50,222
-50,63
-51,03
-51,424
-51,812
-52,194
-52,57
-52,941
-53,306
-53,665
-54,017
-54,362
-54,699
-55,028
-55,349
-55,659
-55,96
-56,25
-56,529
-56,797
-57,052
-57,295
-57,524
-57,74
-57,942
-58,129
-58,302
-58,46
-58,604
-58,734
-58,849
-58,949
-59,036
-59,109
-59,168
-59,213
-59,245
-59,264
-59,271
-59,266
-59,251
-59,226
-59,193
-59,153
-59,109
-59,06
-59,009
-58,957
-58,906
-58,857
-58,812
-58,772
-58,738
-58,713
-58,697
-58,692
-58,698
-58,716
-58,747
-58,791
-58,849
-58,921
-59,008
-59,109
-59,225
-59,357
-59,504
-59,666
-59,845
-60,039
-60,249
-60,475
-60,715
-60,969
-61,237
-61,517
-61,808
-62,109
-62,419
-62,736
-63,058
-63,385
-63,715
-64,045
-64,375
-64,702
-65,025
-65,343
-65,654
-65,958
-66,253
-66,539
-66,815
-67,08
-67,334
-67,577
-67,807
-68,024
-68,227
-68,415
-68,588
-68,746
-68,887
-69,012
-69,12
-69,211
-69,285
-69,341
-69,38
-69,402
-69,408
-69,398
-69,373
-69,333
-69,28
-69,215
-69,139
-69,053
-68,958
-68,856
-68,747
-68,633
-68,526
-68,403
-68,256
-68,093
-67,885
-67,746
-67,764
-67,836
-67,994
-67,827
-67,003
-65,82
-64,325
-64,028
-64,672
-67,096
-79,178
-85,104
-57,599
-32,642
-55,266
-84,51
-78,907
-65,041
-63,141
-63,693
-63,591
-64,423
-65,11
-65,465
-65,49
-65,331
-65,285
-65,292
-65,331
-65,408
-65,49
-65,585
-65,701
-65,833
-65,982
-66,149
-66,334
-66,538
-66,758
-66,996
-67,248
-67,514
-67,79
-68,073
-68,36
-68,648
-68,934
-69,214
-69,485
-69,744
-69,989
-70,217
-70,425
-70,611
-70,769
-70,898
-70,992
-71,049
-71,063
-71,029
-70,941
-70,796
-70,588
-70,312
-69,962
-69,531
-69,007
-68,387
-67,665
-66,841
-65,914
-64,886
-63,76
-62,546
-61,255
-59,901
-58,492
-57,035
-55,536
-54
-52,44
-50,864
-49,281
-47,694
-46,101
-44,495
-42,87
-41,211
-39,499
-37,708
-35,808
-33,775
-31,601
-29,283
-26,825
-24,233
-21,507
-18,66
-15,713
-12,692
-9,635
-6,588
-3,596
-0,724
1,951
4,352
6,396
8,015
9,167
9,814
9,932
9,501
8,501
6,921
4,768
2,055
-1,193
-4,938
-9,136
-13,718
-18,591
-23,657
-28,813
-33,966
-39,043
-43,981
-48,714
-53,183
-57,327
-61,078
-64,39
-67,218
-69,528
-71,309
-72,562
-73,308
-73,603
-73,512
-73,111
-72,498
-71,764
-71,002
-70,32
-69,812
-69,602
-69,875
-70,742
-72,249
-74,347
-76,814
-79,422
-82,005
-84,301
-85,971
-86,826
-86,787
-86,087
-85,426
-85,413
-86,478
-89,03
-93,27
-99,142
-106,342
-113,864
-119,897
-122,598
-120,154
-110,84
-93,435
-66,958
-30,753
14,816
68,347
127,952
191,084
254,876
316,734
373,798
423,073
462,204
489,415
503,394
503,897
491,31
466,032
429,151
382,413
327,683
267,232
203,645
138,961
75,009
13,891
-42,543
-92,715
-135,179
-169,169
-194,663
-211,669
-220,333
-221,191
-215,084
-203,323
-187,632
-169,576
-150,263
-130,734
-112,105
-95,56
-82,083
-72,009
-65,057
-60,721
-58,624
-58,405
-59,503
-60,992
-61,865
-61,579
-60,08
-57,578
-54,313
-50,46
-46,259
-42,186
-38,846
-36,585
-35,448
-35,297
-35,894
-37,05
-38,625
-40,404
-42,087
-43,464
-44,42
-44,917
-44,992
-44,666
-43,915
-42,743
-41,183
-39,276
-37,074
-34,624
-31,951
-29,091
-26,08
-22,953
-19,753
-16,518
-13,273
-10,042
-6,848
-3,713
-0,67
2,257
5,058
7,734
10,297
12,762
15,141
17,448
19,707
21,936
24,158
26,39
28,647
30,945
33,302
35,74
38,285
40,958
43,776
46,751
49,892
53,209
56,708
60,392
64,261
68,315
72,557
76,988
81,613
86,432
91,445
96,65
102,044
107,622
113,375
119,297
125,379
131,614
137,996
144,517
151,163
157,922
164,778
171,711
178,702
185,723
192,741
199,724
206,643
213,477
220,207
226,815
233,283
239,592
245,722
251,662
257,406
262,943
268,261
273,348
278,201
282,827
287,246
291,471
295,503
299,327
302,923
306,268
309,339
312,106
314,533
316,568
318,168
319,3
319,94
320,065
319,641
318,622
316,949
314,585
311,511
307,724
303,241
298,076
292,256
285,828
278,851
271,399
263,533
255,292
246,708
237,817
228,669
219,329
209,872
200,35
190,803
181,264
171,755
162,297
152,902
143,555
134,236
124,931
115,642
106,402
97,255
88,236
79,37
70,671
62,15
53,833
45,749
37,919
30,374
23,141
16,256
9,779
3,76
-1,767
-6,789
-11,322
-15,397
-19,037
-22,259
-25,083
-27,523
-29,606
-31,354
-32,783
-33,912
-34,766
-35,376
-35,792
-36,059
-36,204
-36,245
-36,183
-36,01
-35,726
-35,335
-34,836
-34,237
-33,543
-32,761
-31,911
-31,01
-30,069
-29,096
-28,092
-27,054
-25,992
-24,917
-23,844
-22,794
-21,78
-20,817
-19,919
-19,096
-18,356
-17,703
-17,138
-16,655
-16,254
-15,935
-15,698
-15,543
-15,469
-15,473
-15,551
-15,697
-15,907
-16,173
-16,491
-16,852
-17,251
-17,684
-18,147
-18,636
-19,149
-19,681
-20,229
-20,791
-21,362
-21,939
-22,521
-23,103
-23,685
-24,264
-24,839
-25,409
-25,975
-26,536
-27,091
-27,643
-28,19
-28,733
-29,274
-29,812
-30,349
-30,886
-31,423
-31,963
-32,505
-33,052
-33,603
-34,161
-34,726
-35,299
-35,88
-36,469
-37,066
-37,671
-38,284
-38,903
-39,528
-40,158
-40,791
-41,427
-42,063
-42,698
-43,33
-43,957
-44,578
-45,189
-45,789
-46,376
-46,949
-47,504
-48,042
-48,56
-49,058
-49,532
-49,984
-50,41
-50,811
-51,186
-51,533
-51,853
-52,144
-52,407
-52,641
-52,848
-53,026
-53,177
-53,301
-53,399
-53,473
-53,524
-53,552
-53,56
-53,549
-53,521
-53,477
-53,421
-53,353
-53,276
-53,192
-53,103
-53,009
-52,915
-52,819
-52,726
-52,635
-52,548
-52,468
-52,395
-52,331
-52,276
-52,234
-52,203
-52,187
-52,185
-52,2
-52,23
-52,278
-52,344
-52,429
-52,534
-52,658
-52,802
-52,966
-53,151
-53,356
-53,581
-53,827
-54,091
-54,374
-54,676
-54,995
-55,331
-55,682
-56,049
-56,43
-56,825
-57,231
-57,649
-58,076
-58,511
-58,953
-59,4
-59,851
-60,304
-60,758
-61,211
-61,66
-62,106
-62,545
-62,977
-63,399
-63,811
-64,209
-64,594
-64,963
-65,315
-65,649
-65,964
-66,259
-66,533
-66,785
-67,014
-67,221
-67,405
-67,565
-67,701
-67,813
-67,902
-67,968
-68,011
-68,031
-68,03
-68,009
-67,968
-67,908
-67,831
-67,737
-67,628
-67,505
-67,37
-67,223
-67,066
-66,901
-66,729
-66,551
-66,368
-66,183
-65,995
-65,807
-65,618
-65,431
-65,246
-65,063
-64,884
-64,71
-64,54
-64,377
-64,22
-64,07
-63,927
-63,791
-63,664
-63,544
-63,432
-63,328
-63,232
-63,144
-63,063
-62,991
-62,925
-62,867
-62,815
-62,769
-62,73
-62,696
-62,668
-62,646
-62,628
-62,617
-62,611
-62,612
-62,62
-62,634
-62,655
-62,684
-62,72
-62,764
-62,816
-62,876
-62,944
-63,021
-63,105
-63,198
-63,3
-63,41
-63,528
-63,655
-63,79
-63,933
-64,083
-64,241
-64,405
-64,577
-64,755
-64,94
-65,131
-65,326
-65,526
-65,728
-65,93
-66,131
-66,326
-66,514
-66,691
-66,855
-67,003
-67,132
-67,24
-67,325
-67,385
-67,418
-67,419
-67,386
-67,314
-67,199
-67,037
-66,824
-66,556
-66,227
-65,833
-65,374
-64,845
-64,245
-63,568
-62,807
-61,957
-61,019
-59,991
-58,876
-57,675
-56,391
-55,033
-53,614
-52,146
-50,642
-49,106
-47,539
-45,941
-44,316
-42,667
-41,001
-39,317
-37,603
-35,857
-34,075
-32,255
-30,396
-28,485
-26,498
-24,421
-22,245
-19,977
-17,636
-15,242
-12,808
-10,361
-7,928
-5,552
-3,29
-1,185
0,732
2,421
3,852
4,972
5,721
6,056
5,953
5,397
4,395
2,945
1,042
-1,294
-4,037
-7,142
-10,548
-14,21
-18,09
-22,138
-26,298
-30,495
-34,644
-38,69
-42,598
-46,347
-49,916
-53,259
-56,319
-59,053
-61,427
-63,443
-65,115
-66,412
-67,358
-68,044
-68,585
-69,222
-70,179
-71,498
-73,212
-75,349
-77,731
-80,234
-82,734
-84,767
-85,967
-86,23
-85,363
-83,41
-80,814
-77,766
-74,443
-71,483
-69,353
-68,449
-69,491
-72,683
-77,694
-84,433
-92,625
-101,555
-110,538
-118,378
-123,158
-123,324
-117,573
-104,479
-83,013
-52,344
-11,868
37,938
95,54
159,036
225,922
293,326
358,401
417,819
468,201
506,952
532,112
542,399
537,576
517,952
484,299
438,381
382,534
319,242
251,301
181,47
112,055
45,267
-16,85
-72,7
-121,004
-160,833
-191,757
-213,777
-227,019
-231,763
-228,605
-218,579
-203,082
-183,692
-162,047
-139,554
-117,58
-97,709
-81,287
-68,984
-60,911
-56,713
-55,671
-57,109
-60,255
-63,893
-66,807
-68,27
-67,962
-65,946
-62,58
-58,178
-53,089
-47,942
-43,417
-39,926
-37,644
-36,514
-36,309
-36,83
-37,893
-39,225
-40,528
-41,594
-42,316
-42,679
-42,732
-42,514
-42,043
-41,353
-40,48
-39,45
-38,269
-36,928
-35,413
-33,726
-31,886
-29,913
-27,825
-25,638
-23,364
-21,014
-18,595
-16,112
-13,566
-10,958
-8,296
-5,586
-2,847
-0,102
2,638
5,368
8,086
10,802
13,521
16,252
19,006
21,798
24,639
27,541
30,514
33,567
36,71
39,96
43,333
46,851
50,53
54,38
58,408
62,619
67,016
71,599
76,367
81,312
86,43
91,716
97,167
102,78
108,549
114,466
120,523
126,71
133,017
139,435
145,957
152,571
159,262
166,016
172,816
179,644
186,481
193,301
200,076
206,78
213,387
219,875
226,224
232,41
238,411
244,205
249,771
255,092
260,16
264,969
269,516
273,805
277,843
281,641
285,22
288,59
291,753
294,706
297,438
299,941
302,209
304,228
305,982
307,454
308,615
309,439
309,897
309,946
309,541
308,634
307,166
305,098
302,404
299,065
295,082
290,454
285,178
279,265
272,733
265,596
257,877
249,597
240,769
231,432
221,634
211,426
200,878
190,05
178,992
167,756
156,387
144,926
133,422
121,919
110,456
99,086
87,868
76,867
66,166
55,834
45,93
36,51
27,612
19,264
11,495
4,32
-2,252
-8,209
-13,543
-18,255
-22,348
-25,838
-28,759
-31,149
-33,068
-34,588
-35,78
-36,72
-37,474
-38,087
-38,597
-39,031
-39,408
-39,75
-40,079
-40,413
-40,764
-41,143
-41,554
-42,004
-42,49
-42,985
-43,455
-43,854
-44,145
-44,311
-44,344
-44,243
-44,011
-43,653
-43,172
-42,58
-41,89
-41,106
-40,233
-39,267
-38,204
-37,059
-35,86
-34,643
-33,439
-32,267
-31,142
-30,074
-29,076
-28,155
-27,315
-26,554
-25,865
-25,253
-24,724
-24,287
-23,956
-23,731
-23,607
-23,576
-23,627
-23,757
-23,958
-24,226
-24,552
-24,93
-25,357
-25,835
-26,365
-26,943
-27,565
-28,223
-28,912
-29,626
-30,361
-31,115
-31,883
-32,662
-33,448
-34,239
-35,033
-35,828
-36,62
-37,403
-38,175
-38,931
-39,669
-40,387
-41,081
-41,751
-42,395
-43,012
-43,601
-44,163
-44,697
-45,203
-45,683
-46,135
-46,563
-46,967
-47,348
-47,708
-48,049
-48,373
-48,681
-48,976
-49,259
-49,532
-49,796
-50,055
-50,309
-50,559
-50,808
-51,056
-51,306
-51,558
-51,812
-52,071
-52,333
-52,601
-52,873
-53,15
-53,432
-53,717
-54,007
-54,298
-54,591
-54,884
-55,175
-55,463
-55,745
-56,018
-56,282
-56,534
-56,772
-56,993
-57,196
-57,379
-57,542
-57,682
-57,798
-57,891
-57,958
-58,001
-58,018
-58,009
-57,976
-57,919
-57,838
-57,736
-57,612
-57,469
-57,308
-57,131
-56,94
-56,736
-56,521
-56,298
-56,069
-55,836
-55,603
-55,371
-55,145
-54,926
-54,718
-54,523
-54,344
-54,183
-54,043
-53,924
-53,829
-53,759
-53,713
-53,694
-53,701
-53,733
-53,791
-53,872
-53,977
-54,102
-54,246
-54,407
-54,582
-54,769
-54,966
-55,17
-55,378
-55,589
-55,8
-56,008
-56,211
-56,407
-56,592
-56,765
-56,922
-57,062
-57,182
-57,281
-57,356
-57,407
-57,433
-57,432
-57,404
-57,349
-57,267
-57,159
-57,024
-56,865
-56,684
-56,483
-56,264
-56,029
-55,784
-55,53
-55,271
-55,011
-54,751
-54,497
-54,251
-54,015
-53,793
-53,588
-53,402
-53,237
-53,097
-52,982
-52,895
-52,837
-52,809
-52,811
-52,845
-52,91
-53,005
-53,132
-53,289
-53,476
-53,691
-53,934
-54,203
-54,496
-54,809
-55,141
-55,487
-55,845
-56,21
-56,579
-56,948
-57,314
-57,672
-58,02
-58,355
-58,673
-58,971
-59,248
-59,501
-59,727
-59,925
-60,095
-60,236
-60,348
-60,433
-60,491
-60,525
-60,536
-60,527
-60,5
-60,456
-60,397
-60,325
-60,242
-60,148
-60,048
-59,943
-59,839
-59,739
-59,65
-59,576
-59,524
-59,496
-59,498
-59,532
-59,601
-59,706
-59,85
-60,033
-60,259
-60,531
-60,852
-61,222
-61,637
-62,094
-62,582
-63,092
-63,611
-64,124
-64,621
-65,092
-65,532
-65,944
-66,33
-66,691
-67,026
-67,326
-67,584
-67,798
-67,964
-68,081
-68,152
-68,182
-68,185
-68,179
-68,178
-68,186
-68,2
-68,203
-68,178
-68,106
-67,973
-67,77
-67,486
-67,109
-66,627
-66,035
-65,322
-64,471
-63,454
-62,229
-60,764
-59,036
-57,034
-54,754
-52,192
-49,351
-46,234
-42,854
-39,227
-35,374
-31,313
-27,061
-22,644
-18,099
-13,483
-8,868
-4,323
0,087
4,297
8,24
11,842
15,034
17,762
19,988
21,681
22,814
23,358
23,286
22,61
21,353
19,533
17,222
14,35
10,88
6,973
2,664
-1,562
-5,306
-8,81
-12,079
-16,572
-21,984
-29,104
-45,725
-56,084
-33,033
-12,362
-38,85
-71,724
-69,699
-59,195
-60,341
-63,652
-65,976
-68,882
-71,312
-73,146
-74,566
-75,866
-77,339
-78,917
-80,556
-82,093
-83,344
-84,11
-83,955
-82,563
-80,013
-76,547
-72,578
-68,778
-65,586
-63,323
-62,591
-63,779
-66,767
-71,186
-76,371
-81,379
-85,769
-89,557
-92,515
-94,582
-95,995
-96,945
-97,79
-98,971
-100,15
-100,179
-97,872
-91,783
-80,34
-62,362
-36,688
-2,287
40,944
92,084
149,661
211,446
274,702
336,826
394,915
445,867
487,014
516,274
532,066
533,692
521,264
495,127
456,265
406,376
347,475
281,919
212,408
141,496
71,39
4,352
-57,512
-112,429
-158,836
-195,701
-222,791
-240,263
-248,307
-247,352
-238,274
-222,438
-201,7
-177,989
-152,786
-127,356
-103,173
-81,873
-64,769
-52,446
-44,708
-40,905
-40,458
-42,78
-46,96
-51,662
-55,526
-57,736
-58,096
-56,812
-54,169
-50,45
-46,051
-41,643
-38,015
-35,62
-34,56
-34,702
-35,785
-37,587
-39,913
-42,465
-44,873
-46,898
-48,416
-49,39
-49,867
-49,856
-49,346
-48,365
-46,96
-45,183
-43,083
-40,695
-38,041
-35,16
-32,093
-28,884
-25,586
-22,234
-18,863
-15,508
-12,203
-8,986
-5,887
-2,924
-0,099
2,59
5,153
7,602
9,951
12,222
14,436
16,615
18,78
20,948
23,134
25,362
27,652
30,031
32,521
35,135
37,889
40,791
43,85
47,076
50,473
54,041
57,784
61,703
65,803
70,09
74,566
79,229
84,082
89,122
94,35
99,766
105,369
111,152
117,108
123,227
129,498
135,908
142,438
149,065
155,767
162,523
169,312
176,116
182,914
189,684
196,403
203,051
209,608
216,067
222,416
228,648
234,767
240,772
246,671
252,48
258,202
263,831
269,362
274,776
280,061
285,2
290,167
294,934
299,468
303,722
307,65
311,204
314,318
316,934
318,992
320,425
321,194
321,272
320,635
319,274
317,182
314,354
310,806
306,563
301,651
296,11
289,982
283,31
276,159
268,589
260,648
252,385
243,83
234,996
225,906
216,585
207,052
197,332
187,441
177,386
167,19
156,873
146,46
135,977
125,444
114,888
104,359
93,921
83,647
73,619
63,902
54,549
45,616
37,146
29,182
21,763
14,909
8,628
2,925
-2,2
-6,757
-10,763
-14,261
-17,319
-19,999
-22,369
-24,483
-26,383
-28,112
-29,707
-31,2
-32,616
-33,969
-35,265
-36,513
-37,722
-38,892
-40,018
-41,082
-42,05
-42,897
-43,604
-44,158
-44,554
-44,79
-44,864
-44,784
-44,563
-44,215
-43,758
-43,207
-42,571
-41,867
-41,112
-40,328
-39,54
-38,769
-38,031
-37,337
-36,698
-36,121
-35,611
-35,172
-34,799
-34,491
-34,247
-34,065
-33,945
-33,887
-33,886
-33,94
-34,044
-34,194
-34,386
-34,618
-34,884
-35,182
-35,508
-35,86
-36,234
-36,629
-37,041
-37,466
-37,901
-38,341
-38,783
-39,223
-39,658
-40,086
-40,502
-40,907
-41,298
-41,673
-42,033
-42,377
-42,704
-43,014
-43,308
-43,586
-43,848
-44,095
-44,328
-44,549
-44,758
-44,957
-45,147
-45,33
-45,507
-45,68
-45,85
-46,019
-46,189
-46,36
-46,536
-46,716
-46,903
-47,099
-47,304
-47,521
-47,749
-47,99
-48,245
-48,513
-48,795
-49,091
-49,4
-49,722
-50,056
-50,401
-50,757
-51,121
-51,494
-51,874
-52,259
-52,648
-53,039
-53,432
-53,824
-54,214
-54,6
-54,982
-55,356
-55,722
-56,079
-56,424
-56,756
-57,074
-57,376
-57,66
-57,924
-58,169
-58,392
-58,593
-58,77
-58,924
-59,054
-59,159
-59,24
-59,296
-59,328
-59,336
-59,321
-59,283
-59,223
-59,141
-59,039
-58,917
-58,776
-58,617
-58,441
-58,25
-58,043
-57,824
-57,592
-57,349
-57,097
-56,837
-56,571
-56,302
-56,03
-55,758
-55,489
-55,223
-54,962
-54,71
-54,467
-54,235
-54,015
-53,81
-53,621
-53,448
-53,293
-53,157
-53,04
-52,943
-52,866
-52,811
-52,777
-52,765
-52,775
-52,807
-52,862
-52,939
-53,039
-53,161
-53,304
-53,469
-53,654
-53,857
-54,079
-54,317
-54,569
-54,835
-55,112
-55,398
-55,69
-55,987
-56,287
-56,586
-56,883
-57,176
-57,462
-57,739
-58,006
-58,261
-58,502
-58,729
-58,938
-59,13
-59,303
-59,455
-59,585
-59,692
-59,776
-59,835
-59,869
-59,876
-59,858
-59,812
-59,741
-59,643
-59,519
-59,37
-59,197
-59,001
-58,783
-58,545
-58,289
-58,017
-57,731
-57,433
-57,127
-56,813
-56,494
-56,173
-55,852
-55,533
-55,218
-54,909
-54,608
-54,317
-54,039
-53,775
-53,529
-53,301
-53,094
-52,91
-52,75
-52,618
-52,513
-52,439
-52,396
-52,386
-52,41
-52,47
-52,565
-52,697
-52,865
-53,07
-53,311
-53,586
-53,896
-54,239
-54,613
-55,017
-55,45
-55,909
-56,393
-56,899
-57,426
-57,97
-58,53
-59,102
-59,683
-60,269
-60,858
-61,446
-62,028
-62,601
-63,16
-63,702
-64,221
-64,713
-65,173
-65,597
-65,978
-66,313
-66,596
-66,823
-66,989
-67,09
-67,123
-67,083
-66,967
-66,772
-66,495
-66,132
-65,681
-65,14
-64,506
-63,779
-62,958
-62,041
-61,028
-59,919
-58,716
-57,419
-56,03
-54,552
-52,985
-51,334
-49,603
-47,795
-45,916
-43,971
-41,967
-39,91
-37,809
-35,673
-33,51
-31,33
-29,143
-26,96
-24,792
-22,65
-20,545
-18,486
-16,488
-14,562
-12,723
-10,981
-9,349
-7,835
-6,454
-5,215
-4,129
-3,204
-2,444
-1,855
-1,448
-1,232
-1,22
-1,422
-1,84
-2,479
-3,348
-4,45
-5,79
-7,368
-9,169
-11,184
-13,407
-15,829
-18,449
-21,248
-24,191
-27,239
-30,346
-33,469
-36,569
-39,598
-42,494
-45,202
-47,673
-49,869
-51,783
-53,396
-54,684
-55,644
-56,271
-56,588
-56,653
-56,516
-56,242
-55,919
-55,635
-55,506
-55,68
-56,262
-57,377
-59,176
-61,711
-64,985
-68,909
-73,215
-77,636
-81,952
-85,837
-88,927
-91,002
-91,951
-91,988
-91,755
-91,795
-92,511
-94,308
-97,418
-101,867
-107,411
-113,075
-117,096
-117,682
-113,053
-101,535
-81,892
-53,076
-14,405
33,72
89,789
151,779
217,004
282,504
345,596
403,269
452,384
490,516
515,898
527,279
524,536
508,084
478,196
435,963
383,247
322,075
255,008
184,893
113,877
44,055
-21,809
-81,324
-132,56
-173,946
-205,076
-226,281
-237,65
-239,565
-233,359
-220,763
-203,874
-184,85
-164,985
-145,132
-126,392
-109,93
-96,494
-86,251
-78,708
-73,11
-69,096
-66,469
-64,835
-63,446
-61,427
-58,339
-54,248
-49,465
-44,238
-38,71
-33,049
-27,673
-23,198
-19,988
-18,109
-17,437
-17,732
-18,811
-20,528
-22,653
-24,873
-26,94
-28,704
-30,094
-31,126
-31,799
-32,089
-31,981
-31,468
-30,562
-29,284
-27,666
-25,732
-23,516
-21,056
-18,394
-15,574
-12,644
-9,645
-6,607
-3,552
-0,501
2,524
5,495
8,374
11,145
13,806
16,36
18,82
21,199
23,509
25,77
28,01
30,253
32,519
34,826
37,187
39,617
42,136
44,765
47,525
50,435
53,504
56,743
60,16
63,758
67,544
71,518
75,677
80,019
84,544
89,253
94,145
99,217
104,466
109,89
115,484
121,243
127,161
133,225
139,426
145,748
152,177
158,692
165,273
171,898
178,543
185,188
191,814
198,4
204,93
211,384
217,741
223,986
230,11
236,11
241,984
247,734
253,36
258,866
264,265
269,562
274,757
279,844
284,809
289,637
294,307
298,796
303,082
307,132
310,901
314,338
317,384
319,981
322,08
323,626
324,56
324,84
324,43
323,316
321,494
318,965
315,735
311,811
307,203
301,937
296,049
289,582
282,599
275,159
267,311
259,117
250,637
241,921
233,004
223,908
214,636
205,202
195,63
185,941
176,171
166,349
156,501
146,661
136,846
127,074
117,371
107,748
98,222
88,822
79,585
70,561
61,819
53,405
45,356
37,702
30,455
23,619
17,195
11,161
5,505
0,22
-4,705
-9,269
-13,473
-17,334
-20,868
-24,102
-27,078
-29,825
-32,364
-34,72
-36,9
-38,907
-40,737
-42,372
-43,796
-45,006
-46
-46,786
-47,377
-47,779
-47,999
-48,05
-47,932
-47,654
-47,224
-46,649
-45,942
-45,124
-44,214
-43,242
-42,236
-41,216
-40,202
-39,207
-38,243
-37,32
-36,448
-35,631
-34,874
-34,185
-33,57
-33,034
-32,582
-32,217
-31,94
-31,749
-31,642
-31,618
-31,675
-31,812
-32,025
-32,315
-32,678
-33,114
-33,621
-34,197
-34,837
-35,538
-36,294
-37,102
-37,956
-38,852
-39,783
-40,745
-41,734
-42,746
-43,776
-44,819
-45,873
-46,933
-47,996
-49,058
-50,116
-51,168
-52,209
-53,239
-54,253
-55,251
-56,23
-57,189
-58,126
-59,038
-59,925
-60,784
-61,615
-62,417
-63,187
-63,926
-64,632
-65,306
-65,947
-66,555
-67,13
-67,672
-68,181
-68,658
-69,103
-69,517
-69,901
-70,254
-70,578
-70,875
-71,144
-71,387
-71,606
-71,801
-71,974
-72,126
-72,258
-72,371
-72,468
-72,549
-72,617
-72,674
-72,72
-72,759
-72,793
-72,822
-72,85
-72,878
-72,908
-72,94
-72,978
-73,023
-73,075
-73,137
-73,209
-73,293
-73,39
-73,5
-73,624
-73,762
-73,914
-74,079
-74,258
-74,45
-74,654
-74,87
-75,096
-75,333
-75,578
-75,832
-76,091
-76,356
-76,623
-76,892
-77,16
-77,426
-77,687
-77,942
-78,189
-78,426
-78,651
-78,862
-79,059
-79,24
-79,402
-79,546
-79,669
-79,771
-79,851
-79,91
-79,946
-79,96
-79,952
-79,924
-79,875
-79,807
-79,721
-79,617
-79,497
-79,363
-79,215
-79,055
-78,886
-78,707
-78,522
-78,332
-78,14
-77,946
-77,752
-77,561
-77,373
-77,191
-77,016
-76,85
-76,692
-76,546
-76,411
-76,289
-76,179
-76,083
-76
-75,929
-75,872
-75,826
-75,79
-75,764
-75,747
-75,736
-75,73
-75,729
-75,73
-75,732
-75,735
-75,737
-75,737
-75,733
-75,725
-75,712
-75,692
-75,666
-75,632
-75,59
-75,539
-75,478
-75,409
-75,329
-75,24
-75,141
-75,032
-74,915
-74,79
-74,657
-74,518
-74,374
-74,228
-74,08
-73,934
-73,789
-73,65
-73,517
-73,393
-73,279
-73,175
-73,082
-73
-72,928
-72,868
-72,816
-72,773
-72,737
-72,708
-72,683
-72,663
-72,645
-72,626
-72,605
-72,578
-72,542
-72,493
-72,426
-72,338
-72,221
-72,072
-71,886
-71,657
-71,379
-71,044
-70,643
-70,169
-69,618
-68,986
-68,271
-67,474
-66,595
-65,641
-64,622
-63,546
-62,422
-61,254
-60,045
-58,802
-57,529
-56,23
-54,911
-53,572
-52,206
-50,804
-49,356
-47,841
-46,241
-44,53
-42,676
-40,657
-38,458
-36,068
-33,492
-30,729
-27,789
-24,69
-21,457
-18,12
-14,725
-11,321
-7,964
-4,725
-1,675
1,114
3,561
5,603
7,187
8,266
8,812
8,801
8,219
7,074
5,382
3,165
0,461
-2,688
-6,236
-10,107
-14,237
-18,559
-22,996
-27,487
-31,973
-36,386
-40,673
-44,785
-48,678
-52,324
-55,702
-58,785
-61,555
-63,992
-66,078
-67,817
-69,208
-70,248
-70,956
-71,35
-71,461
-71,341
-71,031
-70,581
-70,058
-69,525
-69,063
-68,763
-68,698
-68,974
-69,736
-71,064
-72,978
-75,393
-78,061
-80,72
-83,151
-85,061
-86,131
-86,164
-85,127
-83,338
-81,5
-80,32
-80,342
-81,979
-85,496
-90,861
-97,63
-104,635
-109,993
-111,611
-107,529
-96,128
-76,13
-46,7
-7,641
40,229
95,007
154,105
214,539
273,384
327,852
375,255
413,169
439,827
454,294
456,341
446,504
425,597
394,478
354,356
306,844
253,691
196,693
137,688
78,152
19,533
-36,323
-87,618
-132,869
-170,866
-200,816
-222,433
-235,459
-239,77
-235,985
-225,283
-209,124
-189,167
-167,003
-143,951
-121,441
-101,129
-84,276
-71,464
-62,75
-57,765
-55,94
-56,742
-59,428
-62,789
-65,58
-67,048
-66,881
-65,098
-61,93
-57,572
-52,281
-46,641
-41,373
-36,918
-33,447
-30,928
-29,172
-28,042
-27,449
-27,187
-26,973
-26,616
-26,02
-25,178
-24,175
-23,071
-21,892
-20,678
-19,471
-18,306
-17,215
-16,203
-15,249
-14,329
-13,405
-12,449
-11,452
-10,405
-9,302
-8,13
-6,87
-5,506
-4,028
-2,434
-0,72
1,118
3,092
5,203
7,441
9,789
12,222
14,725
17,293
19,925
22,624
25,391
28,227
31,135
34,129
37,217
40,408
43,71
47,126
50,667
54,347
58,182
62,189
66,383
70,77
75,355
80,138
85,118
90,293
95,657
101,206
106,93
112,822
118,871
125,066
131,392
137,833
144,366
150,962
157,595
164,238
170,872
177,483
184,059
190,584
197,046
203,429
209,724
215,931
222,044
228,057
233,964
239,759
245,45
251,055
256,586
262,051
267,442
272,738
277,917
282,956
287,826
292,493
296,911
301,019
304,769
308,123
311,039
313,482
315,4
316,727
317,409
317,41
316,704
315,288
313,16
310,323
306,794
302,608
297,811
292,47
286,636
280,347
273,646
266,573
259,181
251,538
243,698
235,705
227,596
219,398
211,14
202,85
194,544
186,221
177,878
169,499
161,081
152,638
144,177
135,712
127,252
118,801
110,371
101,982
93,653
85,404
77,256
69,224
61,333
53,613
46,094
38,81
31,786
25,039
18,586
12,441
6,616
1,12
-4,041
-8,867
-13,358
-17,513
-21,333
-24,817
-27,971
-30,803
-33,321
-35,536
-37,458
-39,098
-40,469
-41,582
-42,45
-43,088
-43,506
-43,72
-43,743
-43,59
-43,278
-42,823
-42,241
-41,547
-40,759
-39,89
-38,957
-37,974
-36,954
-35,91
-34,855
-33,8
-32,755
-31,733
-30,741
-29,789
-28,884
-28,033
-27,244
-26,521
-25,869
-25,292
-24,793
-24,375
-24,038
-23,784
-23,613
-23,524
-23,517
-23,588
-23,736
-23,957
-24,248
-24,605
-25,024
-25,5
-26,029
-26,606
-27,227
-27,885
-28,578
-29,301
-30,049
-30,818
-31,605
-32,404
-33,213
-34,027
-34,844
-35,661
-36,473
-37,279
-38,075
-38,86
-39,63
-40,384
-41,119
-41,836
-42,531
-43,204
-43,854
-44,481
-45,085
-45,665
-46,222
-46,756
-47,267
-47,757
-48,224
-48,671
-49,098
-49,506
-49,894
-50,264
-50,617
-50,953
-51,273
-51,577
-51,866
-52,141
-52,401
-52,648
-52,882
-53,105
-53,316
-53,518
-53,71
-53,895
-54,072
-54,244
-54,41
-54,572
-54,731
-54,887
-55,042
-55,196
-55,35
-55,504
-55,66
-55,817
-55,977
-56,14
-56,306
-56,476
-56,65
-56,828
-57,012
-57,2
-57,394
-57,594
-57,8
-58,013
-58,232
-58,457
-58,688
-58,925
-59,168
-59,415
-59,667
-59,922
-60,18
-60,439
-60,699
-60,959
-61,218
-61,474
-61,726
-61,974
-62,215
-62,45
-62,677
-62,894
-63,102
-63,299
-63,485
-63,659
-63,821
-63,97
-64,106
-64,229
-64,339
-64,436
-64,519
-64,589
-64,646
-64,69
-64,722
-64,743
-64,753
-64,753
-64,744
-64,726
-64,701
-64,67
-64,633
-64,593
-64,549
-64,504
-64,458
-64,414
-64,371
-64,333
-64,299
-64,27
-64,248
-64,233
-64,225
-64,226
-64,235
-64,252
-64,278
-64,311
-64,352
-64,401
-64,457
-64,518
-64,586
-64,657
-64,733
-64,811
-64,891
-64,972
-65,053
-65,132
-65,21
-65,284
-65,355
-65,421
-65,48
-65,532
-65,575
-65,609
-65,632
-65,644
-65,643
-65,628
-65,6
-65,558
-65,502
-65,431
-65,347
-65,25
-65,141
-65,02
-64,889
-64,749
-64,601
-64,447
-64,288
-64,126
-63,963
-63,799
-63,638
-63,479
-63,325
-63,177
-63,037
-62,905
-62,784
-62,674
-62,576
-62,493
-62,425
-62,373
-62,339
-62,323
-62,327
-62,35
-62,393
-62,456
-62,538
-62,637
-62,752
-62,88
-63,02
-63,168
-63,322
-63,479
-63,635
-63,789
-63,936
-64,075
-64,201
-64,311
-64,401
-64,465
-64,498
-64,497
-64,456
-64,369
-64,231
-64,035
-63,78
-63,459
-63,069
-62,604
-62,056
-61,419
-60,691
-59,872
-58,961
-57,961
-56,875
-55,709
-54,475
-53,184
-51,845
-50,467
-49,053
-47,605
-46,126
-44,622
-43,099
-41,56
-39,997
-38,403
-36,772
-35,099
-33,377
-31,598
-29,739
-27,785
-25,73
-23,569
-21,314
-18,983
-16,59
-14,154
-11,7
-9,263
-6,891
-4,639
-2,553
-0,677
0,945
2,271
3,239
3,802
3,925
3,582
2,761
1,457
-0,332
-2,603
-5,332
-8,487
-12,013
-15,84
-19,907
-24,153
-28,511
-32,919
-37,302
-41,588
-45,722
-49,65
-53,319
-56,686
-59,702
-62,329
-64,543
-66,343
-67,746
-68,796
-69,546
-70,048
-70,351
-70,512
-70,6
-70,693
-70,871
-71,219
-71,805
-72,726
-74,11
-76,029
-78,5
-81,44
-84,619
-87,786
-90,723
-93,15
-94,75
-95,322
-94,771
-93,256
-91,311
-89,425
-87,974
-87,345
-87,783
-89,329
-91,828
-94,553
-96,093
-94,992
-89,775
-78,957
-61,417
-36,195
-2,578
39,254
88,162
142,548
200,159
258,359
314,688
366,367
410,454
444,614
467,119
476,752
473,35
457,384
429,379
390,551
342,776
288,007
228,417
166,34
103,533
41,499
-17,9
-72,961
-122,282
-164,524
-198,706
-224,396
-241,085
-248,273
-246,192
-235,715
-218,165
-195,385
-169,431
-142,086
-115,251
-91,118
-71,387
-56,962
-48,086
-44,265
-44,508
-47,843
-53,111
-58,701
-63,159
-65,596
-65,604
-63,317
-59,238
-53,858
-47,762
-41,789
-36,738
-33,091
-31,042
-30,501
-31,193
-32,868
-35,261
-38,031
-40,828
-43,403
-45,618
-47,419
-48,814
-49,794
-50,329
-50,416
-50,077
-49,334
-48,214
-46,739
-44,925
-42,798
-40,403
-37,779
-34,97
-32,02
-28,96
-25,827
-22,659
-19,494
-16,373
-13,33
-10,38
-7,531
-4,778
-2,113
0,474
2,997
5,48
7,942
10,405
12,887
15,401
17,964
20,594
23,312
26,142
29,102
32,204
35,457
38,867
42,439
46,175
50,077
54,143
58,368
62,752
67,294
71,997
76,86
81,88
87,053
92,375
97,842
103,454
109,211
115,108
121,139
127,294
133,563
139,933
146,39
152,913
159,475
166,051
172,619
179,16
185,661
192,101
198,461
204,717
210,848
216,84
222,683
228,369
233,894
239,257
244,467
249,542
254,51
259,387
264,181
268,889
273,502
278,009
282,401
286,665
290,781
294,721
298,448
301,926
305,116
307,97
310,429
312,421
313,867
314,706
314,886
314,37
313,131
311,145
308,393
304,87
300,577
295,525
289,738
283,242
276,073
268,274
259,902
251,02
241,701
232,012
222,021
211,79
201,38
190,851
180,266
169,682
159,16
148,756
138,512
128,47
118,661
109,116
99,866
90,942
82,365
74,153
66,316
58,858
51,787
45,098
38,78
32,814
27,166
21,811
16,733
11,919
7,361
3,047
-1,044
-4,937
-8,648
-12,189
-15,57
-18,795
-21,873
-24,803
-27,577
-30,178
-32,577
-34,757
-36,71
-38,436
-39,936
-41,213
-42,263
-43,086
-43,687
-44,075
-44,26
-44,251
-44,056
-43,689
-43,17
-42,524
-41,781
-40,965
-40,092
-39,18
-38,241
-37,288
-36,334
-35,389
-34,458
-33,546
-32,662
-31,812
-31,004
-30,243
-29,533
-28,875
-28,269
-27,716
-27,217
-26,773
-26,384
-26,051
-25,774
-25,555
-25,395
-25,294
-25,251
-25,265
-25,334
-25,455
-25,626
-25,844
-26,105
-26,406
-26,744
-27,117
-27,522
-27,956
-28,416
-28,899
-29,404
-29,926
-30,464
-31,015
-31,576
-32,145
-32,719
-33,297
-33,876
-34,455
-35,033
-35,607
-36,177
-36,742
-37,301
-37,852
-38,395
-38,929
-39,454
-39,97
-40,476
-40,973
-41,46
-41,939
-42,41
-42,873
-43,328
-43,776
-44,217
-44,651
-45,078
-45,499
-45,915
-46,325
-46,731
-47,132
-47,529
-47,923
-48,313
-48,7
-49,085
-49,467
-49,846
-50,221
-50,594
-50,964
-51,329
-51,69
-52,047
-52,399
-52,745
-53,085
-53,417
-53,743
-54,059
-54,367
-54,665
-54,952
-55,228
-55,493
-55,746
-55,985
-56,212
-56,424
-56,622
-56,806
-56,974
-57,126
-57,262
-57,382
-57,486
-57,573
-57,644
-57,699
-57,738
-57,762
-57,772
-57,768
-57,752
-57,723
-57,684
-57,635
-57,578
-57,513
-57,443
-57,368
-57,289
-57,209
-57,127
-57,046
-56,966
-56,89
-56,817
-56,75
-56,689
-56,636
-56,592
-56,557
-56,533
-56,521
-56,521
-56,533
-56,559
-56,599
-56,653
-56,721
-56,802
-56,898
-57,006
-57,127
-57,26
-57,404
-57,558
-57,721
-57,892
-58,07
-58,254
-58,441
-58,632
-58,826
-59,02
-59,213
-59,406
-59,595
-59,78
-59,96
-60,134
-60,299
-60,456
-60,603
-60,74
-60,864
-60,977
-61,076
-61,162
-61,234
-61,293
-61,337
-61,367
-61,383
-61,386
-61,376
-61,355
-61,322
-61,278
-61,226
-61,165
-61,096
-61,021
-60,94
-60,854
-60,765
-60,672
-60,578
-60,482
-60,386
-60,291
-60,197
-60,106
-60,019
-59,935
-59,856
-59,783
-59,715
-59,655
-59,601
-59,554
-59,514
-59,481
-59,456
-59,437
-59,424
-59,417
-59,415
-59,417
-59,422
-59,43
-59,439
-59,449
-59,46
-59,471
-59,482
-59,492
-59,502
-59,51
-59,518
-59,524
-59,528
-59,532
-59,534
-59,534
-59,533
-59,531
-59,528
-59,524
-59,519
-59,513
-59,507
-59,501
-59,496
-59,492
-59,49
-59,491
-59,496
-59,507
-59,523
-59,546
-59,577
-59,617
-59,664
-59,72
-59,784
-59,853
-59,927
-60,005
-60,086
-60,167
-60,247
-60,324
-60,397
-60,465
-60,526
-60,576
-60,613
-60,634
-60,635
-60,612
-60,561
-60,478
-60,357
-60,195
-59,987
-59,73
-59,416
-59,04
-58,591
-58,064
-57,455
-56,761
-55,983
-55,121
-54,18
-53,166
-52,092
-50,971
-49,809
-48,612
-47,381
-46,122
-44,842
-43,55
-42,25
-40,945
-39,629
-38,297
-36,941
-35,546
-34,092
-32,553
-30,892
-29,084
-27,121
-24,997
-22,716
-20,283
-17,7
-14,98
-12,146
-9,23
-6,273
-3,318
-0,412
2,38
4,981
7,307
9,271
10,803
11,859
12,4
12,397
11,822
10,652
8,883
6,531
3,62
0,183
-3,737
-8,088
-12,79
-17,734
-22,814
-27,917
-32,95
-37,844
-42,537
-46,969
-51,081
-54,811
-58,093
-60,896
-63,205
-65,012
-66,347
-67,225
-67,642
-67,712
-67,621
-67,549
-67,703
-68,166
-68,849
-69,799
-71,223
-73,135
-75,408
-77,796
-79,808
-81,256
-82,393
-83,241
-83,575
-83,376
-82,716
-81,945
-81,951
-83,233
-85,618
-89,035
-93,465
-98,582
-104,008
-109,007
-112,073
-111,794
-107,237
-97,439
-81,525
-59,028
-29,564
7,044
50,202
98,867
151,855
207,589
264,124
319,605
372,069
419,181
458,775
489,068
508,524
516,084
511,488
494,718
465,913
425,94
376,203
318,378
254,561
187,067
117,819
48,739
-17,779
-79,385
-134
-179,839
-215,715
-241,156
-255,73
-259,134
-252,032
-235,942
-212,89
-185,267
-155,404
-125,186
-96,589
-71,848
-52,546
-39,298
-31,967
-29,749
-31,558
-36,443
-43,248
-50,342
-56,258
-60,168
-61,801
-61,388
-59,399
-56,229
-52,331
-48,463
-45,407
-43,601
-43,167
-43,946
-45,619
-47,923
-50,634
-53,421
-55,911
-57,853
-59,104
-59,637
-59,525
-58,82
-57,554
-55,781
-53,571
-50,988
-48,098
-44,957
-41,598
-38,069
-34,415
-30,687
-26,945
-23,245
-19,64
-16,166
-12,843
-9,68
-6,685
-3,858
-1,193
1,322
3,71
5,992
8,188
10,316
12,393
14,441
16,486
18,554
20,67
22,857
25,128
27,498
29,978
32,58
35,311
38,176
41,179
44,323
47,615
51,06
54,667
58,438
62,377
66,487
70,771
75,229
79,86
84,666
89,646
94,803
100,14
105,656
111,348
117,212
123,239
129,416
135,728
142,154
148,67
155,253
161,879
168,529
175,188
181,837
188,459
195,032
201,532
207,938
214,233
220,401
226,426
232,304
238,033
243,623
249,095
254,464
259,742
264,936
270,037
275,036
279,918
284,661
289,252
293,669
297,888
301,887
305,643
309,12
312,28
315,072
317,42
319,256
320,512
321,121
321,037
320,229
318,677
316,373
313,312
309,489
304,904
299,557
293,448
286,585
278,971
270,625
261,596
251,942
241,737
231,069
220,013
208,629
196,979
185,114
173,085
160,954
148,786
136,648
124,618
112,782
101,241
90,091
79,416
69,279
59,703
50,695
42,264
34,417
27,172
20,549
14,539
9,119
4,302
0,091
-3,534
-6,611
-9,217
-11,472
-13,443
-15,122
-16,775
-18,656
-20,607
-22,689
-24,546
-25,574
-26,859
-29,219
-33,007
-37,645
-41,906
-50,94
-52,155
-21,005
5,196
-20,606
-55,659
-57,226
-49,053
-47,537
-45,732
-42,91
-41,123
-40,717
-40,728
-40,144
-39,31
-38,398
-37,439
-36,642
-35,902
-35,096
-34,282
-33,487
-32,702
-31,937
-31,204
-30,507
-29,863
-29,294
-28,79
-28,343
-27,959
-27,636
-27,374
-27,173
-27,031
-26,942
-26,906
-26,925
-26,996
-27,12
-27,294
-27,518
-27,793
-28,116
-28,487
-28,903
-29,361
-29,857
-30,389
-30,953
-31,544
-32,158
-32,791
-33,44
-34,101
-34,769
-35,443
-36,119
-36,794
-37,466
-38,131
-38,788
-39,435
-40,07
-40,691
-41,295
-41,883
-42,451
-43
-43,527
-44,031
-44,512
-44,969
-45,401
-45,808
-46,189
-46,545
-46,876
-47,183
-47,466
-47,727
-47,968
-48,19
-48,395
-48,586
-48,764
-48,931
-49,09
-49,243
-49,391
-49,535
-49,678
-49,821
-49,965
-50,111
-50,26
-50,414
-50,572
-50,735
-50,904
-51,079
-51,26
-51,448
-51,644
-51,846
-52,056
-52,272
-52,496
-52,726
-52,963
-53,204
-53,45
-53,7
-53,951
-54,204
-54,455
-54,704
-54,949
-55,188
-55,42
-55,643
-55,857
-56,059
-56,249
-56,426
-56,59
-56,739
-56,873
-56,993
-57,097
-57,185
-57,259
-57,318
-57,362
-57,391
-57,407
-57,41
-57,399
-57,376
-57,341
-57,295
-57,238
-57,172
-57,097
-57,016
-56,928
-56,835
-56,74
-56,643
-56,546
-56,45
-56,356
-56,266
-56,181
-56,102
-56,03
-55,965
-55,909
-55,862
-55,825
-55,798
-55,781
-55,775
-55,78
-55,796
-55,823
-55,86
-55,909
-55,969
-56,039
-56,12
-56,212
-56,315
-56,428
-56,552
-56,685
-56,828
-56,979
-57,139
-57,306
-57,479
-57,659
-57,844
-58,033
-58,227
-58,424
-58,623
-58,825
-59,028
-59,232
-59,436
-59,64
-59,842
-60,043
-60,241
-60,436
-60,628
-60,816
-60,999
-61,176
-61,347
-61,51
-61,665
-61,81
-61,945
-62,069
-62,18
-62,278
-62,363
-62,434
-62,49
-62,53
-62,555
-62,563
-62,554
-62,528
-62,484
-62,422
-62,342
-62,244
-62,128
-61,993
-61,841
-61,67
-61,482
-61,276
-61,054
-60,816
-60,562
-60,294
-60,013
-59,72
-59,417
-59,104
-58,784
-58,459
-58,129
-57,798
-57,466
-57,136
-56,809
-56,488
-56,173
-55,867
-55,572
-55,29
-55,021
-54,769
-54,533
-54,316
-54,119
-53,944
-53,791
-53,662
-53,559
-53,481
-53,431
-53,41
-53,417
-53,453
-53,52
-53,615
-53,74
-53,894
-54,076
-54,285
-54,521
-54,781
-55,065
-55,371
-55,697
-56,041
-56,402
-56,778
-57,166
-57,563
-57,969
-58,381
-58,795
-59,211
-59,626
-60,038
-60,444
-60,842
-61,229
-61,602
-61,958
-62,294
-62,605
-62,889
-63,141
-63,358
-63,537
-63,675
-63,769
-63,816
-63,815
-63,765
-63,663
-63,507
-63,297
-63,029
-62,702
-62,312
-61,859
-61,339
-60,751
-60,091
-59,356
-58,548
-57,663
-56,701
-55,659
-54,533
-53,32
-52,021
-50,641
-49,182
-47,652
-46,058
-44,41
-42,723
-41,012
-39,289
-37,566
-35,847
-34,134
-32,432
-30,747
-29,088
-27,458
-25,852
-24,262
-22,682
-21,105
-19,524
-17,929
-16,295
-14,605
-12,847
-11,018
-9,13
-7,203
-5,252
-3,298
-1,365
0,517
2,299
3,927
5,356
6,545
7,455
8,048
8,266
8,06
7,393
6,24
4,598
2,474
-0,126
-3,185
-6,672
-10,539
-14,715
-19,115
-23,659
-28,28
-32,915
-37,509
-42,003
-46,331
-50,426
-54,227
-57,678
-60,723
-63,353
-65,546
-67,273
-68,587
-69,587
-70,431
-71,395
-72,709
-74,434
-76,617
-79,274
-82,258
-85,465
-88,68
-91,363
-93,064
-93,585
-92,803
-90,868
-88,187
-84,944
-81,444
-78,42
-76,538
-76,4
-78,507
-82,787
-88,819
-96,37
-104,984
-113,824
-121,883
-127,665
-129,491
-126,126
-116,479
-99,41
-74,102
-39,913
3,364
54,922
113,27
176,637
242,74
308,989
372,775
431,112
481,073
520,391
547,357
560,768
560,181
545,699
517,706
477,31
426,211
366,355
299,928
229,363
157,009
85,052
15,926
-48,036
-104,911
-153,098
-191,458
-219,593
-237,482
-245,182
-243,462
-233,784
-217,871
-197,734
-175,391
-152,399
-130,201
-110,494
-94,559
-82,913
-75,549
-71,916
-71,183
-72,668
-75,59
-78,728
-80,85
-81,232
-79,597
-76,08
-71,087
-64,966
-58,097
-51,153
-44,907
-39,841
-36,166
-33,859
-32,698
-32,484
-33,047
-34,092
-35,284
-36,403
-37,314
-37,976
-38,426
-38,673
-38,706
-38,542
-38,191
-37,656
-36,929
-35,981
-34,786
-33,351
-31,691
-29,835
-27,81
-25,635
-23,33
-20,918
-18,419
-15,85
-13,224
-10,548
-7,839
-5,12
-2,412
0,254
2,865
5,419
7,916
10,369
12,79
15,191
17,589
20,007
22,464
24,976
27,561
30,229
32,998
35,891
38,927
42,132
45,524
49,113
52,912
56,927
61,164
65,623
70,306
75,206
80,322
85,651
91,192
96,94
102,892
109,039
115,376
121,893
128,584
135,439
142,444
149,583
156,84
164,193
171,623
179,104
186,606
194,104
201,57
208,979
216,309
223,536
230,633
237,578
244,345
250,913
257,272
263,408
269,317
274,999
280,456
285,695
290,734
295,576
300,223
304,669
308,898
312,896
316,649
320,137
323,339
326,234
328,785
330,96
332,723
334,026
334,825
335,071
334,703
333,677
331,962
329,536
326,393
322,537
317,968
312,698
306,74
300,113
292,845
284,965
276,501
267,486
257,962
247,979
237,605
226,905
215,934
204,745
193,38
181,877
170,285
158,655
147,035
135,473
124,024
112,747
101,714
91,007
80,693
70,822
61,431
52,539
44,174
36,362
29,121
22,468
16,404
10,92
6,006
1,651
-2,173
-5,509
-8,417
-10,983
-13,272
-15,336
-17,219
-18,949
-20,557
-22,078
-23,531
-24,931
-26,286
-27,602
-28,885
-30,147
-31,384
-32,584
-33,722
-34,76
-35,672
-36,443
-37,066
-37,539
-37,863
-38,038
-38,075
-37,991
-37,803
-37,524
-37,167
-36,739
-36,251
-35,721
-35,169
-34,617
-34,084
-33,581
-33,117
-32,699
-32,333
-32,021
-31,762
-31,551
-31,382
-31,253
-31,163
-31,111
-31,095
-31,111
-31,156
-31,227
-31,32
-31,433
-31,563
-31,708
-31,864
-32,03
-32,206
-32,391
-32,585
-32,786
-32,993
-33,206
-33,423
-33,644
-33,868
-34,094
-34,322
-34,551
-34,783
-35,016
-35,253
-35,494
-35,739
-35,99
-36,248
-36,514
-36,79
-37,077
-37,376
-37,688
-38,014
-38,356
-38,715
-39,09
-39,483
-39,895
-40,325
-40,774
-41,243
-41,73
-42,236
-42,759
-43,299
-43,855
-44,425
-45,008
-45,603
-46,208
-46,821
-47,441
-48,066
-48,694
-49,323
-49,951
-50,576
-51,197
-51,809
-52,413
-53,005
-53,583
-54,146
-54,691
-55,216
-55,72
-56,201
-56,657
-57,086
-57,488
-57,861
-58,205
-58,517
-58,799
-59,049
-59,268
-59,457
-59,615
-59,745
-59,846
-59,92
-59,969
-59,994
-59,997
-59,979
-59,942
-59,887
-59,818
-59,735
-59,641
-59,537
-59,426
-59,31
-59,19
-59,069
-58,948
-58,83
-58,716
-58,608
-58,508
-58,417
-58,337
-58,27
-58,217
-58,178
-58,155
-58,149
-58,159
-58,186
-58,231
-58,291
-58,368
-58,46
-58,567
-58,688
-58,821
-58,966
-59,122
-59,287
-59,461
-59,641
-59,827
-60,018
-60,212
-60,408
-60,606
-60,804
-61,001
-61,196
-61,39
-61,58
-61,767
-61,949
-62,126
-62,298
-62,465
-62,626
-62,78
-62,929
-63,073
-63,211
-63,344
-63,473
-63,599
-63,723
-63,844
-63,965
-64,085
-64,207
-64,33
-64,456
-64,586
-64,719
-64,857
-64,999
-65,147
-65,3
-65,458
-65,621
-65,789
-65,961
-66,136
-66,315
-66,496
-66,678
-66,86
-67,042
-67,221
-67,397
-67,569
-67,735
-67,893
-68,043
-68,182
-68,31
-68,424
-68,524
-68,607
-68,673
-68,72
-68,748
-68,754
-68,74
-68,703
-68,645
-68,565
-68,464
-68,341
-68,197
-68,035
-67,854
-67,656
-67,443
-67,216
-66,978
-66,732
-66,478
-66,22
-65,961
-65,703
-65,447
-65,198
-64,958
-64,73
-64,516
-64,319
-64,143
-63,99
-63,863
-63,765
-63,699
-63,665
-63,666
-63,704
-63,779
-63,892
-64,044
-64,233
-64,461
-64,727
-65,029
-65,366
-65,737
-66,139
-66,569
-67,025
-67,504
-68,001
-68,513
-69,037
-69,567
-70,101
-70,633
-71,16
-71,676
-72,175
-72,654
-73,104
-73,522
-73,899
-74,229
-74,506
-74,725
-74,878
-74,963
-74,973
-74,905
-74,756
-74,523
-74,203
-73,792
-73,288
-72,687
-71,987
-71,185
-70,279
-69,268
-68,151
-66,927
-65,6
-64,172
-62,645
-61,019
-59,295
-57,473
-55,559
-53,56
-51,484
-49,34
-47,14
-44,902
-42,648
-40,401
-38,179
-35,993
-33,849
-31,754
-29,716
-27,745
-25,847
-24,026
-22,278
-20,608
-19,021
-17,522
-16,106
-14,758
-13,451
-12,163
-10,883
-9,617
-8,377
-7,177
-6,037
-4,979
-4,036
-3,252
-2,668
-2,309
-2,192
-2,334
-2,758
-3,507
-4,636
-6,187
-8,181
-10,628
-13,519
-16,839
-20,561
-24,635
-28,989
-33,535
-38,193
-42,901
-47,607
-52,256
-56,785
-61,112
-65,145
-68,805
-72,029
-74,765
-76,983
-78,667
-79,827
-80,507
-80,779
-80,715
-80,395
-79,896
-79,291
-78,671
-78,139
-77,782
-77,737
-78,163
-79,154
-80,746
-82,842
-85,177
-87,486
-89,532
-91,003
-91,565
-90,989
-89,175
-86,435
-83,474
-80,921
-79,282
-78,898
-79,917
-82,388
-86,075
-89,925
-92,2
-91,066
-84,691
-71,691
-51,102
-21,894
16,532
63,656
118,047
177,593
239,531
301,34
360,594
414,216
459,202
493,19
514,269
521,368
514,453
493,569
459,077
412,389
355,414
290,418
220,281
147,821
75,35
5,327
-59,713
-117,666
-166,667
-205,403
-233,614
-251,583
-259,577
-258,159
-248,442
-232,004
-210,931
-187,358
-162,779
-138,316
-115,223
-94,837
-78,183
-65,65
-56,892
-51,182
-48,014
-47,003
-47,556
-48,757
-49,602
-49,522
-48,48
-46,739
-44,544
-42,068
-39,52
-37,335
-36,092
-36,088
-37,308
-39,552
-42,513
-45,931
-49,594
-53,192
-56,344
-58,802
-60,442
-61,236
-61,261
-60,569
-59,192
-57,195
-54,666
-51,691
-48,36
-44,744
-40,896
-36,885
-32,787
-28,683
-24,659
-20,774
-17,063
-13,549
-10,237
-7,128
-4,218
-1,493
1,07
3,496
5,809
8,034
10,191
12,305
14,407
16,527
18,7
20,952
23,302
25,766
28,354
31,077
33,942
36,956
40,118
43,43
46,898
50,525
54,321
58,288
62,429
66,746
71,24
75,911
80,761
85,791
90,998
96,38
101,939
107,674
113,588
119,68
125,942
132,367
138,941
145,651
152,479
159,404
166,398
173,435
180,493
187,549
194,59
201,597
208,548
215,421
222,186
228,822
235,317
241,659
247,836
253,846
259,691
265,384
270,953
276,415
281,781
287,05
292,207
297,239
302,134
306,878
311,462
315,864
320,05
323,987
327,642
330,97
333,923
336,43
338,4
339,751
340,421
340,36
339,542
337,942
335,538
332,313
328,252
323,356
317,644
311,134
303,848
295,818
287,078
277,694
267,765
257,381
246,631
235,592
224,322
212,889
201,365
189,821
178,333
166,963
155,755
144,762
134,035
123,623
113,582
103,94
94,695
85,848
77,393
69,329
61,665
54,395
47,498
40,953
34,726
28,795
23,152
17,78
12,66
7,771
3,079
-1,433
-5,765
-9,917
-13,887
-17,676
-21,289
-24,72
-27,955
-30,973
-33,752
-36,276
-38,545
-40,555
-42,303
-43,786
-44,998
-45,941
-46,628
-47,071
-47,285
-47,282
-47,072
-46,676
-46,118
-45,426
-44,629
-43,75
-42,808
-41,822
-40,809
-39,786
-38,768
-37,766
-36,789
-35,844
-34,94
-34,085
-33,288
-32,554
-31,886
-31,284
-30,751
-30,288
-29,895
-29,574
-29,323
-29,144
-29,035
-28,996
-29,027
-29,127
-29,293
-29,521
-29,808
-30,149
-30,539
-30,974
-31,448
-31,956
-32,491
-33,05
-33,628
-34,218
-34,817
-35,42
-36,021
-36,618
-37,207
-37,784
-38,347
-38,892
-39,419
-39,925
-40,41
-40,872
-41,311
-41,728
-42,123
-42,495
-42,847
-43,18
-43,495
-43,795
-44,081
-44,356
-44,622
-44,883
-45,142
-45,4
-45,661
-45,928
-46,204
-46,491
-46,792
-47,108
-47,443
-47,798
-48,174
-48,572
-48,993
-49,438
-49,906
-50,397
-50,911
-51,447
-52,004
-52,579
-53,172
-53,779
-54,399
-55,028
-55,663
-56,302
-56,94
-57,574
-58,2
-58,815
-59,415
-59,996
-60,555
-61,088
-61,592
-62,064
-62,5
-62,898
-63,256
-63,572
-63,843
-64,069
-64,249
-64,383
-64,469
-64,509
-64,504
-64,453
-64,358
-64,221
-64,044
-63,829
-63,579
-63,296
-62,983
-62,645
-62,284
-61,905
-61,512
-61,108
-60,697
-60,284
-59,873
-59,468
-59,072
-58,689
-58,324
-57,979
-57,658
-57,363
-57,097
-56,862
-56,659
-56,49
-56,355
-56,256
-56,193
-56,165
-56,173
-56,215
-56,291
-56,399
-56,539
-56,708
-56,905
-57,127
-57,373
-57,639
-57,923
-58,223
-58,536
-58,858
-59,187
-59,52
-59,854
-60,186
-60,513
-60,832
-61,142
-61,439
-61,722
-61,988
-62,236
-62,465
-62,674
-62,862
-63,029
-63,174
-63,297
-63,399
-63,479
-63,539
-63,578
-63,599
-63,6
-63,585
-63,552
-63,504
-63,442
-63,367
-63,279
-63,181
-63,073
-62,958
-62,835
-62,707
-62,575
-62,44
-62,303
-62,167
-62,031
-61,898
-61,767
-61,639
-61,515
-61,395
-61,279
-61,167
-61,06
-60,957
-60,857
-60,761
-60,668
-60,578
-60,491
-60,406
-60,324
-60,245
-60,168
-60,096
-60,027
-59,964
-59,907
-59,855
-59,811
-59,775
-59,748
-59,729
-59,721
-59,722
-59,735
-59,759
-59,796
-59,846
-59,909
-59,988
-60,081
-60,191
-60,318
-60,463
-60,626
-60,807
-61,008
-61,228
-61,468
-61,727
-62,005
-62,301
-62,614
-62,94
-63,276
-63,62
-63,967
-64,314
-64,656
-64,989
-65,309
-65,613
-65,896
-66,155
-66,386
-66,586
-66,748
-66,868
-66,94
-66,959
-66,918
-66,811
-66,633
-66,377
-66,04
-65,617
-65,104
-64,495
-63,783
-62,963
-62,032
-60,991
-59,84
-58,584
-57,227
-55,777
-54,249
-52,657
-51,016
-49,335
-47,621
-45,877
-44,109
-42,322
-40,525
-38,72
-36,9
-35,056
-33,182
-31,272
-29,318
-27,309
-25,222
-23,037
-20,744
-18,338
-15,833
-13,245
-10,59
-7,889
-5,168
-2,464
0,171
2,677
5,006
7,113
8,95
10,471
11,61
12,31
12,535
12,259
11,477
10,19
8,397
6,099
3,32
0,094
-3,523
-7,462
-11,669
-16,092
-20,67
-25,332
-29,994
-34,575
-39,011
-43,257
-47,273
-51,017
-54,441
-57,487
-60,123
-62,332
-64,114
-65,49
-66,471
-67,074
-67,331
-67,296
-67,039
-66,645
-66,189
-65,738
-65,373
-65,172
-65,242
-65,748
-66,788
-68,385
-70,484
-72,877
-75,352
-77,773
-79,915
-81,469
-82,253
-82,156
-81,306
-80,29
-79,643
-79,685
-80,771
-83,064
-86,474
-90,891
-95,715
-99,492
-100,701
-97,922
-89,633
-74,826
-52,799
-22,671
15,752
61,527
113,308
169,248
226,892
284,092
338,557
387,254
427,473
457,213
474,76
479,208
470,508
448,642
414,229
368,969
314,881
254,214
189,535
123,187
57,251
-6,055
-64,762
-117,288
-162,325
-199,009
-226,796
-245,474
-255,028
-255,628
-247,979
-233,368
-213,284
-189,375
-163,531
-137,384
-112,656
-91,314
-74,51
-62,59
-55,552
-52,841
-53,479
-56,596
-60,925
-64,737
-66,989
-67,21
-65,188
-61,232
-55,83
-49,382
-42,605
-36,487
-31,6
-28,202
-26,355
-25,802
-26,282
-27,605
-29,452
-31,435
-33,298
-34,881
-36,11
-37,027
-37,642
-37,931
-37,888
-37,5
-36,767
-35,699
-34,307
-32,601
-30,603
-28,345
-25,86
-23,187
-20,369
-17,44
-14,428
-11,354
-8,244
-5,128
-2,044
0,962
3,865
6,653
9,322
11,879
14,332
16,692
18,976
21,208
23,41
25,599
27,792
29,996
32,23
34,51
36,86
39,305
41,866
44,558
47,395
50,387
53,544
56,876
60,386
64,073
67,94
71,987
76,217
80,634
85,238
90,032
95,015
100,189
105,548
111,088
116,8
122,671
128,686
134,828
141,077
147,417
153,835
160,319
166,861
173,453
180,089
186,756
193,436
200,112
206,768
213,39
219,967
226,493
232,965
239,385
245,756
252,073
258,323
264,479
270,504
276,353
281,975
287,329
292,382
297,101
301,456
305,416
308,946
312,011
314,574
316,591
318,015
318,812
318,964
318,471
317,359
315,662
313,419
310,662
307,412
303,69
299,513
294,894
289,85
284,397
278,555
272,355
265,84
259,041
251,979
244,654
237,042
229,125
220,889
212,332
203,467
194,314
184,905
175,283
165,507
155,628
145,7
135,762
125,84
115,97
106,199
96,587
87,213
78,142
69,426
61,11
53,224
45,786
38,803
32,26
26,122
20,359
14,949
9,875
5,136
0,719
-3,399
-7,243
-10,851
-14,253
-17,467
-20,513
-23,405
-26,151
-28,749
-31,185
-33,425
-35,451
-37,25
-38,819
-40,164
-41,287
-42,188
-42,87
-43,336
-43,592
-43,648
-43,51
-43,187
-42,692
-42,043
-41,263
-40,385
-39,434
-38,431
-37,392
-36,331
-35,26
-34,193
-33,139
-32,105
-31,096
-30,121
-29,186
-28,302
-27,475
-26,707
-26,003
-25,362
-24,786
-24,275
-23,832
-23,457
-23,151
-22,914
-22,747
-22,653
-22,63
-22,679
-22,798
-22,984
-23,235
-23,549
-23,922
-24,35
-24,831
-25,361
-25,938
-26,558
-27,219
-27,917
-28,649
-29,413
-30,205
-31,022
-31,861
-32,72
-33,594
-34,481
-35,379
-36,284
-37,194
-38,105
-39,017
-39,926
-40,83
-41,728
-42,616
-43,494
-44,36
-45,212
-46,049
-46,87
-47,673
-48,457
-49,223
-49,968
-50,693
-51,395
-52,075
-52,731
-53,363
-53,97
-54,551
-55,105
-55,633
-56,133
-56,605
-57,05
-57,468
-57,859
-58,223
-58,561
-58,874
-59,162
-59,426
-59,667
-59,886
-60,083
-60,259
-60,416
-60,554
-60,674
-60,777
-60,865
-60,939
-60,999
-61,048
-61,086
-61,114
-61,136
-61,152
-61,163
-61,173
-61,183
-61,194
-61,208
-61,227
-61,252
-61,286
-61,328
-61,38
-61,444
-61,519
-61,606
-61,707
-61,82
-61,947
-62,088
-62,243
-62,411
-62,594
-62,79
-63
-63,224
-63,46
-63,709
-63,971
-64,244
-64,528
-64,821
-65,124
-65,433
-65,748
-66,067
-66,389
-66,711
-67,031
-67,348
-67,661
-67,966
-68,263
-68,55
-68,826
-69,089
-69,338
-69,573
-69,792
-69,995
-70,181
-70,349
-70,499
-70,631
-70,744
-70,838
-70,913
-70,968
-71,004
-71,02
-71,018
-70,997
-70,958
-70,903
-70,831
-70,745
-70,647
-70,537
-70,419
-70,293
-70,164
-70,032
-69,899
-69,769
-69,642
-69,52
-69,406
-69,3
-69,204
-69,119
-69,047
-68,987
-68,942
-68,912
-68,898
-68,9
-68,919
-68,956
-69,011
-69,084
-69,175
-69,284
-69,411
-69,556
-69,717
-69,894
-70,086
-70,291
-70,507
-70,733
-70,965
-71,203
-71,443
-71,683
-71,922
-72,158
-72,389
-72,613
-72,832
-73,043
-73,247
-73,443
-73,631
-73,81
-73,981
-74,142
-74,293
-74,433
-74,56
-74,676
-74,783
-74,882
-74,985
-75,072
-75,136
-75,188
-75,204
-75,293
-75,544
-75,858
-76,267
-76,375
-75,863
-75,023
-73,902
-73,968
-74,968
-77,716
-89,881
-96,05
-69,641
-45,688
-68,043
-96,8
-91,571
-78,248
-76,535
-77,162
-77,1
-77,901
-78,524
-78,797
-78,727
-78,465
-78,307
-78,212
-78,187
-78,261
-78,416
-78,667
-79,012
-79,439
-79,943
-80,513
-81,134
-81,786
-82,426
-83,022
-83,55
-83,982
-84,294
-84,447
-84,384
-84,062
-83,446
-82,508
-81,237
-79,622
-77,64
-75,289
-72,573
-69,503
-66,118
-62,451
-58,522
-54,365
-50,01
-45,503
-40,915
-36,306
-31,729
-27,245
-22,907
-18,771
-14,918
-11,402
-8,271
-5,572
-3,325
-1,55
-0,279
0,475
0,7
0,395
-0,416
-1,712
-3,474
-5,666
-8,248
-11,176
-14,378
-17,797
-21,388
-25,097
-28,887
-32,719
-36,543
-40,312
-43,99
-47,535
-50,922
-54,132
-57,136
-59,919
-62,473
-64,788
-66,872
-68,726
-70,337
-71,703
-72,82
-73,693
-74,356
-74,852
-75,221
-75,508
-75,746
-75,97
-76,234
-76,595
-77,11
-77,843
-78,829
-80,135
-81,877
-84,103
-86,795
-89,822
-92,884
-95,689
-98,014
-99,583
-100,094
-99,356
-97,297
-94,207
-90,749
-87,489
-84,853
-83,146
-82,513
-83,016
-84,46
-85,892
-85,758
-82,496
-74,564
-60,801
-40,378
-12,355
23,763
67,384
117,104
170,954
226,446
281,343
333,41
379,754
417,655
445,09
460,516
463,214
453,299
430,885
396,502
351,727
298,503
239,015
175,863
111,425
47,692
-13,143
-68,999
-118,282
-159,608
-192,095
-215,671
-230,562
-237
-235,486
-226,879
-212,418
-193,772
-172,631
-150,229
-127,611
-105,988
-86,71
-70,893
-59,039
-50,981
-46,191
-44,243
-44,722
-46,95
-49,869
-52,349
-53,703
-53,765
-52,686
-50,652
-47,829
-44,476
-41,108
-38,38
-36,673
-36,047
-36,37
-37,407
-38,948
-40,82
-42,752
-44,38
-45,469
-45,912
-45,689
-44,88
-43,543
-41,701
-39,412
-36,752
-33,792
-30,604
-27,245
-23,743
-20,145
-16,505
-12,881
-9,344
-5,948
-2,717
0,328
3,184
5,853
8,335
10,637
12,784
14,796
16,699
18,514
20,258
21,955
23,63
25,314
27,039
28,834
30,716
32,704
34,813
37,055
39,445
41,99
44,696
47,568
50,611
53,832
57,239
60,836
64,626
68,611
72,793
77,172
81,749
86,524
91,496
96,663
102,024
107,573
113,307
119,221
125,312
131,575
138,002
144,58
151,296
158,131
165,067
172,083
179,153
186,246
193,334
200,389
207,391
214,319
221,151
227,862
234,423
240,806
246,993
252,971
258,73
264,262
269,563
274,641
279,513
284,207
288,737
293,108
297,31
301,332
305,167
308,81
312,257
315,498
318,511
321,271
323,759
325,947
327,796
329,247
330,22
330,632
330,423
329,552
328
325,75
322,776
319,058
314,587
309,359
303,38
296,653
289,166
280,928
271,975
262,372
252,219
241,615
230,637
219,353
207,819
196,098
184,269
172,402
160,558
148,803
137,208
125,865
114,888
104,366
94,354
84,883
75,949
67,552
59,704
52,413
45,68
39,497
33,844
28,703
24,067
19,907
16,181
12,819
9,728
6,835
4,093
1,467
-1,059
-3,5
-5,882
-8,216
-10,502
-12,742
-14,931
-17,07
-19,17
-21,222
-23,209
-25,1
-26,848
-28,421
-29,803
-30,983
-31,958
-32,727
-33,29
-33,657
-33,845
-33,872
-33,75
-33,493
-33,105
-32,602
-32,002
-31,326
-30,601
-29,846
-29,075
-28,303
-27,538
-26,791
-26,067
-25,37
-24,696
-24,047
-23,423
-22,827
-22,263
-21,733
-21,236
-20,774
-20,347
-19,956
-19,6
-19,282
-19,001
-18,757
-18,551
-18,384
-18,258
-18,173
-18,13
-18,127
-18,164
-18,241
-18,356
-18,507
-18,695
-18,916
-19,17
-19,455
-19,769
-20,112
-20,482
-20,877
-21,296
-21,738
-22,2
-22,681
-23,179
-23,692
-24,218
-24,756
-25,302
-25,856
-26,414
-26,975
-27,538
-28,101
-28,662
-29,221
-29,776
-30,325
-30,869
-31,407
-31,936
-32,458
-32,971
-33,475
-33,97
-34,455
-34,931
-35,397
-35,854
-36,301
-36,738
-37,166
-37,584
-37,994
-38,395
-38,787
-39,172
-39,551
-39,922
-40,289
-40,65
-41,008
-41,361
-41,711
-42,059
-42,403
-42,746
-43,085
-43,422
-43,756
-44,087
-44,414
-44,738
-45,058
-45,373
-45,683
-45,988
-46,287
-46,579
-46,865
-47,143
-47,413
-47,676
-47,93
-48,175
-48,411
-48,638
-48,856
-49,064
-49,262
-49,451
-49,63
-49,799
-49,959
-50,109
-50,251
-50,385
-50,512
-50,633
-50,748
-50,859
-50,966
-51,072
-51,177
-51,282
-51,389
-51,498
-51,611
-51,729
-51,853
-51,984
-52,122
-52,268
-52,423
-52,588
-52,762
-52,945
-53,138
-53,341
-53,554
-53,776
-54,006
-54,246
-54,492
-54,746
-55,007
-55,272
-55,542
-55,814
-56,088
-56,362
-56,635
-56,905
-57,171
-57,431
-57,684
-57,929
-58,164
-58,388
-58,601
-58,801
-58,988
-59,16
-59,318
-59,46
-59,587
-59,699
-59,795
-59,876
-59,943
-59,994
-60,033
-60,057
-60,07
-60,071
-60,061
-60,041
-60,012
-59,976
-59,933
-59,884
-59,832
-59,777
-59,72
-59,662
-59,605
-59,549
-59,494
-59,443
-59,394
-59,349
-59,308
-59,271
-59,238
-59,209
-59,185
-59,164
-59,147
-59,133
-59,122
-59,113
-59,105
-59,099
-59,093
-59,088
-59,081
-59,074
-59,065
-59,055
-59,042
-59,026
-59,007
-58,986
-58,961
-58,933
-58,902
-58,869
-58,834
-58,799
-58,763
-58,73
-58,699
-58,674
-58,655
-58,644
-58,643
-58,653
-58,677
-58,715
-58,769
-58,841
-58,933
-59,046
-59,182
-59,342
-59,527
-59,738
-59,976
-60,241
-60,533
-60,853
-61,201
-61,576
-61,978
-62,406
-62,859
-63,336
-63,835
-64,353
-64,888
-65,437
-65,995
-66,558
-67,121
-67,678
-68,226
-68,759
-69,272
-69,76
-70,22
-70,648
-71,038
-71,386
-71,688
-71,938
-72,13
-72,258
-72,315
-72,296
-72,197
-72,012
-71,737
-71,371
-70,91
-70,352
-69,694
-68,933
-68,062
-67,079
-65,982
-64,773
-63,455
-62,037
-60,528
-58,942
-57,291
-55,587
-53,838
-52,046
-50,212
-48,333
-46,408
-44,438
-42,431
-40,397
-38,34
-36,268
-34,184
-32,086
-29,968
-27,821
-25,631
-23,395
-21,116
-18,809
-16,501
-14,224
-12,02
-9,922
-7,958
-6,152
-4,525
-3,1
-1,898
-0,947
-0,278
0,076
0,076
-0,309
-1,096
-2,294
-3,895
-5,875
-8,199
-10,835
-13,75
-16,915
-20,301
-23,871
-27,586
-31,398
-35,258
-39,114
-42,905
-46,569
-50,05
-53,291
-56,246
-58,886
-61,197
-63,166
-64,796
-66,092
-67,067
-67,761
-68,211
-68,467
-68,602
-68,69
-68,824
-69,111
-69,644
-70,543
-71,971
-74,017
-76,709
-79,997
-83,665
-87,493
-91,304
-94,819
-97,701
-99,746
-100,815
-101,03
-100,923
-100,972
-101,535
-103,008
-105,605
-109,301
-113,916
-118,712
-122,204
-122,811
-118,893
-108,759
-91,146
-65,079
-29,85
14,5
66,93
125,83
188,976
253,579
316,938
376,337
428,975
472,322
504,422
523,86
529,905
522,746
502,907
471,087
428,485
376,777
317,885
253,943
187,209
119,489
52,51
-11,582
-70,706
-123,12
-167,358
-202,456
-228,083
-243,9
-249,708
-246,207
-234,752
-217,069
-195,189
-171,08
-146,337
-122,651
-101,915
-85,437
-73,73
-66,698
-63,679
-63,774
-66,188
-69,961
-73,711
-76,198
-76,749
-75,154
-71,658
-66,742
-60,822
-54,375
-48,135
-42,84
-38,918
-36,52
-35,528
-35,66
-36,684
-38,371
-40,425
-42,54
-44,494
-46,158
-47,493
-48,522
-49,245
-49,649
-49,717
-49,432
-48,792
-47,804
-46,481
-44,84
-42,907
-40,716
-38,301
-35,7
-32,953
-30,094
-27,152
-24,15
-21,111
-18,062
-15,039
-12,083
-9,217
-6,448
-3,778
-1,195
1,309
3,747
6,138
8,506
10,875
13,264
15,691
18,168
20,713
23,345
26,088
28,967
32,002
35,203
38,581
42,144
45,899
49,849
53,997
58,336
62,866
67,585
72,492
77,59
82,875
88,342
93,987
99,804
105,79
111,943
118,258
124,724
131,329
138,06
144,902
151,838
158,845
165,894
172,96
180,016
187,043
194,023
200,934
207,753
214,454
221,013
227,411
233,639
239,686
245,546
251,218
256,709
262,038
267,231
272,306
277,272
282,125
286,856
291,457
295,918
300,229
304,375
308,331
312,062
315,534
318,709
321,539
323,968
325,92
327,314
328,082
328,169
327,538
326,163
324,019
321,091
317,367
312,842
307,528
301,448
294,626
287,096
278,902
270,093
260,748
250,953
240,785
230,324
219,637
208,78
197,82
186,819
175,839
164,949
154,202
143,64
133,312
123,251
113,495
104,085
95,032
86,343
78,023
70,069
62,482
55,271
48,427
41,935
35,775
29,914
24,326
19,001
13,918
9,066
4,424
-0,036
-4,327
-8,452
-12,418
-16,222
-19,867
-23,362
-26,701
-29,871
-32,856
-35,63
-38,176
-40,491
-42,566
-44,399
-45,987
-47,319
-48,397
-49,23
-49,827
-50,198
-50,353
-50,298
-50,048
-49,625
-49,049
-48,348
-47,541
-46,645
-45,676
-44,649
-43,577
-42,474
-41,352
-40,216
-39,074
-37,934
-36,805
-35,696
-34,614
-33,562
-32,546
-31,569
-30,635
-29,748
-28,914
-28,135
-27,415
-26,757
-26,167
-25,649
-25,204
-24,836
-24,545
-24,333
-24,198
-24,141
-24,162
-24,258
-24,429
-24,673
-24,988
-25,372
-25,823
-26,338
-26,913
-27,546
-28,234
-28,973
-29,76
-30,59
-31,459
-32,365
-33,303
-34,268
-35,257
-36,265
-37,288
-38,321
-39,362
-40,405
-41,448
-42,485
-43,514
-44,532
-45,535
-46,52
-47,486
-48,429
-49,348
-50,24
-51,105
-51,939
-52,743
-53,514
-54,253
-54,957
-55,627
-56,262
-56,861
-57,426
-57,955
-58,449
-58,909
-59,336
-59,729
-60,091
-60,422
-60,723
-60,996
-61,242
-61,464
-61,661
-61,835
-61,989
-62,123
-62,238
-62,337
-62,419
-62,487
-62,542
-62,585
-62,617
-62,64
-62,654
-62,661
-62,661
-62,656
-62,647
-62,634
-62,62
-62,604
-62,587
-62,572
-62,558
-62,547
-62,538
-62,533
-62,533
-62,537
-62,546
-62,56
-62,579
-62,604
-62,635
-62,672
-62,714
-62,763
-62,817
-62,878
-62,944
-63,016
-63,094
-63,177
-63,264
-63,356
-63,452
-63,551
-63,653
-63,758
-63,864
-63,972
-64,079
-64,186
-64,29
-64,392
-64,489
-64,581
-64,667
-64,746
-64,817
-64,88
-64,932
-64,975
-65,006
-65,026
-65,034
-65,029
-65,011
-64,98
-64,934
-64,875
-64,802
-64,715
-64,614
-64,499
-64,371
-64,23
-64,077
-63,911
-63,733
-63,544
-63,345
-63,136
-62,919
-62,693
-62,462
-62,225
-61,985
-61,742
-61,497
-61,252
-61,008
-60,766
-60,527
-60,292
-60,063
-59,841
-59,625
-59,419
-59,222
-59,036
-58,861
-58,698
-58,547
-58,409
-58,284
-58,173
-58,077
-57,994
-57,926
-57,873
-57,834
-57,811
-57,802
-57,807
-57,827
-57,86
-57,906
-57,965
-58,035
-58,117
-58,209
-58,311
-58,422
-58,542
-58,668
-58,801
-58,939
-59,082
-59,227
-59,375
-59,524
-59,673
-59,821
-59,968
-60,112
-60,252
-60,388
-60,519
-60,644
-60,763
-60,874
-60,979
-61,075
-61,164
-61,246
-61,32
-61,387
-61,447
-61,501
-61,548
-61,589
-61,624
-61,654
-61,68
-61,701
-61,72
-61,736
-61,752
-61,767
-61,784
-61,802
-61,824
-61,849
-61,878
-61,913
-61,955
-62,004
-62,062
-62,129
-62,205
-62,292
-62,388
-62,493
-62,607
-62,727
-62,852
-62,979
-63,106
-63,231
-63,352
-63,467
-63,574
-63,67
-63,756
-63,827
-63,881
-63,915
-63,923
-63,899
-63,841
-63,74
-63,593
-63,393
-63,137
-62,82
-62,441
-61,995
-61,478
-60,884
-60,206
-59,438
-58,578
-57,624
-56,575
-55,436
-54,213
-52,917
-51,563
-50,16
-48,712
-47,224
-45,69
-44,11
-42,48
-40,797
-39,065
-37,284
-35,455
-33,585
-31,677
-29,728
-27,732
-25,674
-23,532
-21,3
-18,981
-16,586
-14,14
-11,668
-9,206
-6,799
-4,484
-2,296
-0,268
1,576
3,214
4,611
5,731
6,528
6,951
6,968
6,558
5,705
4,41
2,68
0,537
-1,976
-4,819
-7,958
-11,358
-14,99
-18,817
-22,789
-26,851
-30,945
-35,005
-38,978
-42,813
-46,454
-49,853
-52,966
-55,763
-58,237
-60,381
-62,197
-63,692
-64,879
-65,794
-66,482
-66,996
-67,404
-67,78
-68,207
-68,779
-69,583
-70,727
-72,362
-74,586
-77,426
-80,833
-84,598
-88,479
-92,287
-95,749
-98,533
-100,426
-101,281
-101,188
-100,697
-100,371
-100,6
-101,792
-104,136
-107,535
-111,857
-116,454
-119,804
-120,238
-116,131
-105,81
-88,181
-62,519
-28,044
15,283
66,398
123,712
185,098
247,969
310,061
369,092
422,315
467,294
502,151
525,433
536,341
534,656
520,3
493,519
455,237
406,775
349,793
286,181
217,997
147,37
76,404
7,399
-57,312
-115,643
-165,792
-206,274
-236,311
-255,585
-263,846
-261,546
-249,999
-230,946
-206,566
-179,266
-151,024
-123,675
-99,367
-79,778
-65,671
-57,165
-53,671
-54,113
-57,533
-62,862
-68,526
-73,037
-75,506
-75,538
-73,27
-69,203
-63,785
-57,524
-51,235
-45,759
-41,613
-39,012
-37,866
-37,885
-38,811
-40,4
-42,321
-44,223
-45,857
-47,082
-47,863
-48,247
-48,258
-47,899
-47,178
-46,107
-44,702
-42,988
-40,992
-38,735
-36,251
-33,58
-30,762
-27,838
-24,851
-21,835
-18,814
-15,807
-12,831
-9,907
-7,062
-4,332
-1,73
0,74
3,084
5,317
7,452
9,505
11,499
13,461
15,414
17,382
19,379
21,419
23,518
25,698
27,983
30,399
32,97
35,711
38,637
41,76
45,091
48,64
52,412
56,406
60,626
65,075
69,759
74,688
79,864
85,287
90,951
96,849
102,97
109,303
115,829
122,525
129,368
136,336
143,412
150,583
157,833
165,14
172,48
179,827
187,158
194,463
201,729
208,945
216,108
223,219
230,291
237,352
244,419
251,499
258,588
265,669
272,729
279,752
286,724
293,624
300,423
307,075
313,534
319,753
325,67
331,214
336,294
340,798
344,635
347,734
350,038
351,515
352,133
351,866
350,697
348,623
345,653
341,811
337,128
331,64
325,404
318,489
310,989
303,022
294,691
286,079
277,258
268,274
259,176
250,008
240,807
231,605
222,426
213,292
204,219
195,218
186,292
177,438
168,636
159,847
151,044
142,207
133,335
124,455
115,592
106,773
98,023
89,367
80,831
72,442
64,226
56,209
48,418
40,872
33,605
26,66
20,075
13,887
8,111
2,73
-2,268
-6,897
-11,171
-15,095
-18,681
-21,95
-24,913
-27,582
-29,969
-32,079
-33,929
-35,546
-36,958
-38,196
-39,273
-40,186
-40,935
-41,522
-41,953
-42,239
-42,385
-42,394
-42,272
-42,033
-41,692
-41,265
-40,762
-40,184
-39,535
-38,817
-38,038
-37,212
-36,354
-35,471
-34,574
-33,669
-32,765
-31,874
-31,001
-30,147
-29,314
-28,504
-27,718
-26,963
-26,243
-25,561
-24,919
-24,319
-23,762
-23,251
-22,787
-22,37
-22
-21,679
-21,405
-21,181
-21,01
-20,89
-20,823
-20,809
-20,848
-20,941
-21,086
-21,284
-21,534
-21,834
-22,185
-22,585
-23,035
-23,532
-24,075
-24,665
-25,298
-25,975
-26,692
-27,447
-28,24
-29,066
-29,923
-30,809
-31,719
-32,651
-33,601
-34,566
-35,541
-36,523
-37,508
-38,492
-39,471
-40,441
-41,399
-42,342
-43,265
-44,166
-45,041
-45,888
-46,705
-47,489
-48,238
-48,951
-49,626
-50,261
-50,856
-51,41
-51,923
-52,393
-52,82
-53,207
-53,552
-53,857
-54,123
-54,353
-54,547
-54,708
-54,838
-54,94
-55,017
-55,071
-55,106
-55,124
-55,129
-55,124
-55,113
-55,097
-55,082
-55,068
-55,059
-55,057
-55,065
-55,084
-55,117
-55,164
-55,227
-55,307
-55,405
-55,522
-55,659
-55,815
-55,991
-56,186
-56,4
-56,632
-56,881
-57,147
-57,427
-57,72
-58,025
-58,339
-58,662
-58,991
-59,323
-59,658
-59,992
-60,324
-60,651
-60,971
-61,282
-61,584
-61,873
-62,149
-62,41
-62,656
-62,886
-63,099
-63,295
-63,474
-63,635
-63,78
-63,908
-64,02
-64,116
-64,198
-64,267
-64,325
-64,372
-64,41
-64,441
-64,466
-64,487
-64,506
-64,525
-64,545
-64,567
-64,594
-64,628
-64,669
-64,719
-64,78
-64,853
-64,938
-65,037
-65,149
-65,275
-65,415
-65,569
-65,736
-65,916
-66,108
-66,31
-66,522
-66,743
-66,97
-67,202
-67,438
-67,675
-67,91
-68,143
-68,371
-68,591
-68,803
-69,002
-69,189
-69,36
-69,515
-69,651
-69,767
-69,863
-69,936
-69,985
-70,011
-70,013
-69,99
-69,944
-69,874
-69,782
-69,668
-69,534
-69,381
-69,211
-69,026
-68,828
-68,619
-68,4
-68,176
-67,947
-67,718
-67,49
-67,266
-67,05
-66,843
-66,648
-66,468
-66,304
-66,159
-66,035
-65,933
-65,854
-65,8
-65,771
-65,769
-65,792
-65,842
-65,917
-66,017
-66,14
-66,285
-66,45
-66,633
-66,832
-67,045
-67,269
-67,502
-67,743
-67,988
-68,235
-68,483
-68,727
-68,967
-69,199
-69,421
-69,632
-69,829
-70,011
-70,176
-70,323
-70,45
-70,557
-70,644
-70,709
-70,753
-70,776
-70,779
-70,763
-70,729
-70,679
-70,615
-70,54
-70,455
-70,364
-70,269
-70,171
-70,073
-69,977
-69,884
-69,794
-69,709
-69,628
-69,552
-69,48
-69,413
-69,35
-69,29
-69,233
-69,179
-69,126
-69,072
-69,015
-68,95
-68,877
-68,789
-68,683
-68,553
-68,394
-68,2
-67,966
-67,686
-67,353
-66,957
-66,487
-65,936
-65,299
-64,573
-63,753
-62,842
-61,839
-60,752
-59,591
-58,367
-57,085
-55,751
-54,366
-52,935
-51,468
-49,972
-48,455
-46,919
-45,359
-43,77
-42,147
-40,475
-38,735
-36,904
-34,95
-32,853
-30,606
-28,208
-25,667
-22,989
-20,176
-17,243
-14,212
-11,113
-7,987
-4,881
-1,841
1,066
3,761
6,164
8,189
9,767
10,858
11,425
11,441
10,882
9,722
7,951
5,579
2,622
-0,893
-4,926
-9,428
-14,324
-19,505
-24,865
-30,292
-35,69
-40,99
-46,118
-51,002
-55,574
-59,757
-63,489
-66,728
-69,438
-71,597
-73,199
-74,255
-74,808
-74,94
-74,743
-74,326
-73,799
-73,264
-72,837
-72,623
-72,751
-73,399
-74,682
-76,649
-79,263
-82,331
-85,635
-89,005
-92,171
-94,777
-96,596
-97,477
-97,536
-97,33
-97,39
-98,112
-99,919
-103,036
-107,422
-112,873
-118,612
-123,061
-124,537
-121,305
-111,588
-94,094
-67,831
-32,018
13,318
67,108
127,772
193,072
260,219
326,59
389,333
445,329
491,815
526,578
547,82
554,576
546,711
524,339
488,308
440,272
382,315
316,934
246,916
174,945
103,436
34,822
-28,753
-85,513
-134,078
-173,646
-203,836
-224,69
-236,431
-239,459
-234,654
-223,38
-207,158
-187,545
-166,205
-144,512
-123,904
-106,049
-91,938
-81,825
-75,637
-72,871
-72,694
-74,418
-77,054
-79,143
-79,786
-78,614
-75,478
-70,686
-64,719
-57,921
-50,89
-44,501
-39,256
-35,395
-33,012
-31,884
-31,768
-32,493
-33,745
-35,16
-36,523
-37,685
-38,575
-39,23
-39,649
-39,816
-39,755
-39,476
-38,978
-38,253
-37,267
-36,001
-34,464
-32,679
-30,681
-28,5
-26,153
-23,667
-21,067
-18,376
-15,618
-12,806
-9,949
-7,07
-4,191
-1,34
1,451
4,165
6,8
9,357
11,845
14,275
16,658
19,009
21,35
23,699
26,072
28,486
30,953
33,492
36,125
38,875
41,769
44,826
48,06
51,483
55,103
58,925
62,955
67,194
71,641
76,294
81,155
86,223
91,498
96,981
102,666
108,546
114,613
120,86
127,28
133,868
140,616
147,511
154,541
161,69
168,943
176,283
183,684
191,118
198,554
205,961
213,315
220,599
227,791
234,872
241,82
248,612
255,233
261,68
267,945
274,015
279,882
285,536
290,978
296,223
301,279
306,147
310,817
315,264
319,465
323,402
327,046
330,366
333,317
335,834
337,871
339,394
340,368
340,766
340,548
339,66
338,068
335,759
332,729
328,992
324,558
319,435
313,651
307,247
300,285
292,842
284,977
276,726
268,131
259,23
250,064
240,688
231,126
221,385
211,478
201,416
191,223
180,934
170,564
160,111
149,573
138,94
128,232
117,485
106,735
96,021
85,391
74,894
64,609
54,624
45,005
35,802
27,049
18,772
11,01
3,809
-2,792
-8,765
-14,102
-18,813
-22,905
-26,396
-29,317
-31,716
-33,661
-35,22
-36,436
-37,333
-37,934
-38,261
-38,352
-38,255
-38,013
-37,664
-37,24
-36,764
-36,261
-35,749
-35,234
-34,711
-34,167
-33,598
-33,021
-32,466
-31,961
-31,526
-31,164
-30,868
-30,63
-30,431
-30,255
-30,09
-29,925
-29,754
-29,579
-29,409
-29,25
-29,103
-28,959
-28,794
-28,592
-28,341
-28,039
-27,694
-27,319
-26,938
-26,572
-26,24
-25,958
-25,736
-25,577
-25,483
-25,454
-25,488
-25,589
-25,767
-26,028
-26,379
-26,819
-27,344
-27,945
-28,607
-29,317
-30,061
-30,828
-31,61
-32,4
-33,194
-33,989
-34,786
-35,581
-36,371
-37,151
-37,917
-38,664
-39,39
-40,095
-40,776
-41,435
-42,071
-42,684
-43,274
-43,839
-44,379
-44,891
-45,372
-45,823
-46,24
-46,624
-46,974
-47,293
-47,579
-47,834
-48,061
-48,261
-48,436
-48,589
-48,721
-48,835
-48,934
-49,021
-49,1
-49,173
-49,244
-49,315
-49,39
-49,471
-49,562
-49,665
-49,783
-49,918
-50,073
-50,248
-50,448
-50,672
-50,921
-51,198
-51,502
-51,834
-52,194
-52,581
-52,996
-53,437
-53,903
-54,394
-54,907
-55,441
-55,992
-56,559
-57,139
-57,727
-58,321
-58,917
-59,511
-60,099
-60,678
-61,244
-61,792
-62,32
-62,823
-63,298
-63,742
-64,152
-64,525
-64,858
-65,149
-65,398
-65,603
-65,763
-65,878
-65,949
-65,976
-65,96
-65,901
-65,801
-65,661
-65,484
-65,272
-65,026
-64,751
-64,449
-64,124
-63,779
-63,419
-63,047
-62,667
-62,284
-61,902
-61,524
-61,155
-60,799
-60,46
-60,142
-59,848
-59,582
-59,348
-59,146
-58,98
-58,851
-58,759
-58,706
-58,692
-58,716
-58,777
-58,876
-59,009
-59,177
-59,378
-59,608
-59,866
-60,148
-60,452
-60,775
-61,112
-61,462
-61,819
-62,181
-62,544
-62,904
-63,259
-63,604
-63,936
-64,252
-64,548
-64,821
-65,068
-65,286
-65,472
-65,625
-65,743
-65,826
-65,871
-65,88
-65,852
-65,788
-65,688
-65,553
-65,385
-65,186
-64,958
-64,703
-64,425
-64,125
-63,807
-63,475
-63,132
-62,78
-62,424
-62,066
-61,709
-61,356
-61,011
-60,675
-60,354
-60,048
-59,761
-59,495
-59,254
-59,039
-58,853
-58,697
-58,572
-58,482
-58,425
-58,404
-58,418
-58,468
-58,554
-58,674
-58,828
-59,014
-59,232
-59,478
-59,751
-60,05
-60,37
-60,71
-61,068
-61,44
-61,823
-62,216
-62,616
-63,019
-63,424
-63,827
-64,226
-64,618
-65,002
-65,372
-65,728
-66,066
-66,382
-66,674
-66,937
-67,167
-67,363
-67,519
-67,634
-67,705
-67,729
-67,705
-67,632
-67,509
-67,335
-67,107
-66,824
-66,483
-66,082
-65,619
-65,091
-64,496
-63,83
-63,093
-62,286
-61,408
-60,458
-59,433
-58,33
-57,147
-55,886
-54,55
-53,141
-51,665
-50,128
-48,542
-46,924
-45,291
-43,654
-42,018
-40,386
-38,758
-37,139
-35,533
-33,944
-32,367
-30,799
-29,237
-27,686
-26,145
-24,611
-23,071
-21,5
-19,878
-18,2
-16,473
-14,712
-12,933
-11,155
-9,404
-7,713
-6,131
-4,702
-3,459
-2,427
-1,63
-1,098
-0,873
-1,008
-1,545
-2,514
-3,929
-5,793
-8,108
-10,863
-14,028
-17,556
-21,38
-25,43
-29,651
-33,989
-38,395
-42,812
-47,176
-51,409
-55,444
-59,216
-62,662
-65,733
-68,381
-70,578
-72,328
-73,653
-74,602
-75,234
-75,604
-75,769
-75,803
-75,784
-75,796
-75,941
-76,3
-76,979
-78,131
-79,846
-82,158
-85,024
-88,236
-91,57
-94,861
-97,857
-100,257
-101,89
-102,63
-102,558
-102,159
-101,862
-101,91
-102,578
-103,942
-105,831
-108,078
-110,131
-110,728
-108,589
-102,53
-91,301
-74,14
-50,595
-20,062
17,59
61,596
110,874
163,928
218,689
273,35
326,075
374,362
415,742
448,172
469,687
478,9
475,34
458,607
428,692
386,631
333,984
272,786
205,909
136,32
66,59
-0,561
-62,553
-117,349
-163,154
-198,796
-224,302
-240,313
-247,639
-247,391
-240,738
-228,964
-213,727
-196,654
-178,724
-160,477
-142,311
-124,682
-108,299
-93,804
-81,485
-71,269
-63,12
-57,162
-53,51
-51,997
-52,045
-52,875
-53,73
-54,238
-54,263
-53,64
-52,245
-50,101
-47,425
-44,643
-42,279
-40,576
-39,531
-39,091
-39,148
-39,6
-40,336
-41,133
-41,707
-41,892
-41,64
-40,959
-39,903
-38,49
-36,72
-34,633
-32,299
-29,782
-27,137
-24,395
-21,569
-18,679
-15,761
-12,849
-9,97
-7,138
-4,36
-1,642
0,999
3,539
5,968
8,286
10,498
12,621
14,668
16,65
18,584
20,493
22,397
24,317
26,271
28,271
30,331
32,469
34,705
37,062
39,561
42,216
45,04
48,043
51,234
54,621
58,209
61,995
65,979
70,16
74,539
79,115
83,889
88,854
94,007
99,341
104,849
110,525
116,362
122,35
128,477
134,735
141,114
147,605
154,201
160,888
167,652
174,475
181,338
188,22
195,098
201,945
208,728
215,42
221,994
228,425
234,693
240,776
246,649
252,294
257,689
262,818
267,674
272,252
276,551
280,577
284,34
287,854
291,146
294,227
297,105
299,784
302,254
304,51
306,547
308,35
309,905
311,195
312,187
312,854
313,166
313,072
312,529
311,484
309,875
307,658
304,805
301,293
297,121
292,29
286,797
280,655
273,881
266,494
258,524
249,996
240,932
231,38
221,392
211,029
200,369
189,48
178,414
167,226
155,959
144,652
133,356
122,119
110,98
99,991
89,205
78,686
68,513
58,75
49,444
40,631
32,331
24,558
17,336
10,679
4,599
-0,894
-5,805
-10,143
-13,915
-17,144
-19,868
-22,139
-24,033
-25,627
-26,977
-28,133
-29,132
-30,004
-30,781
-31,493
-32,157
-32,788
-33,398
-33,996
-34,592
-35,194
-35,793
-36,373
-36,903
-37,349
-37,688
-37,907
-37,999
-37,964
-37,802
-37,517
-37,122
-36,631
-36,06
-35,42
-34,72
-33,97
-33,184
-32,379
-31,576
-30,799
-30,065
-29,385
-28,77
-28,228
-27,761
-27,374
-27,063
-26,825
-26,656
-26,554
-26,519
-26,55
-26,645
-26,802
-27,017
-27,286
-27,607
-27,976
-28,389
-28,843
-29,335
-29,863
-30,423
-31,015
-31,636
-32,283
-32,952
-33,64
-34,343
-35,057
-35,779
-36,504
-37,23
-37,954
-38,673
-39,384
-40,085
-40,776
-41,453
-42,116
-42,763
-43,392
-44,004
-44,596
-45,168
-45,719
-46,249
-46,757
-47,242
-47,704
-48,144
-48,559
-48,952
-49,321
-49,667
-49,991
-50,292
-50,571
-50,83
-51,07
-51,291
-51,495
-51,683
-51,857
-52,019
-52,17
-52,311
-52,445
-52,571
-52,692
-52,81
-52,924
-53,037
-53,15
-53,263
-53,378
-53,496
-53,618
-53,744
-53,876
-54,015
-54,161
-54,316
-54,48
-54,654
-54,84
-55,037
-55,248
-55,471
-55,708
-55,958
-56,222
-56,499
-56,79
-57,093
-57,409
-57,735
-58,072
-58,419
-58,775
-59,137
-59,506
-59,88
-60,258
-60,638
-61,019
-61,4
-61,781
-62,159
-62,534
-62,905
-63,269
-63,627
-63,975
-64,313
-64,64
-64,952
-65,249
-65,53
-65,792
-66,035
-66,256
-66,456
-66,633
-66,787
-66,916
-67,022
-67,102
-67,158
-67,189
-67,197
-67,181
-67,144
-67,085
-67,007
-66,91
-66,796
-66,667
-66,523
-66,364
-66,194
-66,012
-65,82
-65,62
-65,414
-65,202
-64,989
-64,775
-64,563
-64,356
-64,156
-63,964
-63,784
-63,615
-63,461
-63,323
-63,201
-63,098
-63,014
-62,952
-62,912
-62,895
-62,902
-62,934
-62,989
-63,067
-63,165
-63,281
-63,413
-63,558
-63,716
-63,886
-64,066
-64,259
-64,463
-64,681
-64,909
-65,146
-65,386
-65,624
-65,858
-66,087
-66,312
-66,539
-66,773
-67,023
-67,297
-67,602
-67,94
-68,309
-68,702
-69,109
-69,521
-69,935
-70,353
-70,781
-71,218
-71,659
-72,096
-72,512
-72,886
-73,189
-73,384
-73,438
-73,333
-73,061
-72,631
-72,064
-71,383
-70,606
-69,747
-68,814
-67,822
-66,791
-65,747
-64,724
-63,77
-62,942
-62,307
-61,932
-61,861
-62,118
-62,702
-63,59
-64,745
-66,129
-67,702
-69,43
-71,278
-73,197
-75,141
-77,054
-78,865
-80,503
-81,886
-82,927
-83,559
-83,735
-83,429
-82,645
-81,403
-79,73
-77,661
-75,221
-72,433
-69,334
-65,953
-62,327
-58,494
-54,481
-50,325
-46,08
-41,794
-37,514
-33,276
-29,094
-24,975
-20,927
-16,96
-13,096
-9,363
-5,779
-2,377
0,802
3,709
6,263
8,403
10,089
11,288
11,982
12,151
11,767
10,814
9,287
7,191
4,544
1,363
-2,336
-6,516
-11,121
-16,077
-21,274
-26,617
-32,027
-37,421
-42,731
-47,888
-52,819
-57,472
-61,81
-65,794
-69,39
-72,556
-75,246
-77,439
-79,128
-80,33
-81,095
-81,472
-81,514
-81,296
-80,881
-80,341
-79,765
-79,227
-78,804
-78,582
-78,631
-79,054
-79,996
-81,527
-83,649
-86,256
-89,083
-91,862
-94,37
-96,302
-97,315
-97,196
-95,873
-93,612
-91,04
-88,759
-87,22
-86,784
-87,696
-89,97
-93,264
-96,571
-98,26
-96,534
-89,689
-76,34
-55,353
-25,848
12,43
58,804
111,706
168,768
227,206
284,384
337,522
383,649
420,186
445,084
456,932
455,475
441,167
414,544
376,764
329,62
275,129
215,661
153,681
91,026
29,292
-29,7
-84,354
-133,222
-175,137
-209,558
-236,025
-253,848
-262,609
-262,183
-253,614
-239,58
-221,402
-199,366
-173,244
-140,836
-104,287
-69,906
-43,107
-30,363
-32,387
-42,74
-55,841
-65,694
-69,502
-69,899
-68,599
-66,852
-65,21
-62,233
-57,57
-51,881
-45,941
-40,936
-37,464
-35,489
-34,925
-35,57
-37,146
-39,393
-41,948
-44,409
-46,549
-48,261
-49,494
-50,255
-50,522
-50,278
-49,549
-48,38
-46,813
-44,885
-42,622
-40,047
-37,202
-34,137
-30,897
-27,534
-24,084
-20,585
-17,077
-13,602
-10,205
-6,919
-3,767
-0,758
2,108
4,835
7,432
9,913
12,3
14,612
16,87
19,094
21,297
23,498
25,716
27,973
30,293
32,698
35,202
37,82
40,562
43,435
46,447
49,601
52,899
56,342
59,934
63,679
67,582
71,645
75,871
80,261
84,816
89,536
94,419
99,464
104,67
110,039
115,572
121,267
127,118
133,119
139,259
145,524
151,897
158,359
164,884
171,447
178,025
184,6
191,157
197,676
204,135
210,508
216,771
222,904
228,897
234,74
240,424
245,95
251,321
256,555
261,676
266,699
271,627
276,452
281,159
285,734
290,165
294,439
298,541
302,445
306,115
309,518
312,618
315,369
317,716
319,582
320,883
321,554
321,544
320,824
319,377
317,191
314,255
310,562
306,115
300,927
295,018
288,402
281,099
273,135
264,548
255,411
245,809
235,816
225,5
214,912
204,097
193,103
181,981
170,78
159,55
148,338
137,196
126,192
115,397
104,892
94,748
85,003
75,681
66,804
58,392
50,473
43,071
36,202
29,871
24,081
18,831
14,115
9,913
6,188
2,885
-0,066
-2,734
-5,163
-7,387
-9,437
-11,337
-13,116
-14,798
-16,396
-17,919
-19,375
-20,774
-22,123
-23,426
-24,669
-25,83
-26,877
-27,781
-28,527
-29,108
-29,522
-29,77
-29,856
-29,787
-29,582
-29,257
-28,83
-28,312
-27,717
-27,056
-26,348
-25,617
-24,886
-24,177
-23,503
-22,878
-22,31
-21,806
-21,371
-21,006
-20,708
-20,472
-20,298
-20,183
-20,127
-20,128
-20,184
-20,288
-20,439
-20,631
-20,862
-21,128
-21,425
-21,751
-22,101
-22,473
-22,865
-23,274
-23,698
-24,131
-24,573
-25,018
-25,465
-25,91
-26,351
-26,786
-27,214
-27,631
-28,039
-28,436
-28,822
-29,198
-29,564
-29,921
-30,27
-30,613
-30,952
-31,287
-31,62
-31,953
-32,289
-32,627
-32,971
-33,321
-33,68
-34,048
-34,428
-34,822
-35,23
-35,654
-36,095
-36,555
-37,034
-37,533
-38,052
-38,592
-39,152
-39,733
-40,334
-40,954
-41,593
-42,249
-42,922
-43,608
-44,306
-45,015
-45,731
-46,453
-47,178
-47,904
-48,628
-49,347
-50,06
-50,763
-51,454
-52,131
-52,792
-53,434
-54,055
-54,653
-55,225
-55,771
-56,289
-56,777
-57,233
-57,658
-58,05
-58,409
-58,734
-59,025
-59,282
-59,506
-59,697
-59,856
-59,984
-60,081
-60,15
-60,192
-60,209
-60,201
-60,173
-60,124
-60,058
-59,977
-59,883
-59,778
-59,665
-59,546
-59,423
-59,3
-59,178
-59,059
-58,946
-58,841
-58,746
-58,662
-58,592
-58,537
-58,498
-58,477
-58,475
-58,492
-58,529
-58,586
-58,664
-58,762
-58,88
-59,018
-59,175
-59,351
-59,543
-59,753
-59,977
-60,214
-60,464
-60,724
-60,992
-61,267
-61,545
-61,826
-62,107
-62,386
-62,66
-62,928
-63,187
-63,435
-63,67
-63,891
-64,094
-64,28
-64,445
-64,588
-64,709
-64,806
-64,879
-64,926
-64,949
-64,945
-64,917
-64,864
-64,786
-64,683
-64,558
-64,411
-64,243
-64,055
-63,849
-63,627
-63,391
-63,143
-62,884
-62,617
-62,345
-62,068
-61,789
-61,511
-61,235
-60,964
-60,7
-60,444
-60,2
-59,968
-59,75
-59,549
-59,365
-59,199
-59,053
-58,926
-58,82
-58,735
-58,671
-58,629
-58,607
-58,605
-58,624
-58,662
-58,72
-58,795
-58,887
-58,994
-59,117
-59,254
-59,403
-59,564
-59,736
-59,918
-60,109
-60,308
-60,514
-60,725
-60,942
-61,164
-61,389
-61,616
-61,846
-62,078
-62,311
-62,545
-62,78
-63,016
-63,252
-63,489
-63,726
-63,964
-64,202
-64,441
-64,68
-64,92
-65,16
-65,401
-65,64
-65,878
-66,114
-66,345
-66,571
-66,788
-66,996
-67,191
-67,373
-67,538
-67,684
-67,808
-67,908
-67,981
-68,023
-68,031
-68
-67,925
-67,801
-67,627
-67,398
-67,109
-66,757
-66,339
-65,85
-65,291
-64,657
-63,944
-63,147
-62,26
-61,283
-60,218
-59,07
-57,839
-56,527
-55,139
-53,68
-52,159
-50,582
-48,945
-47,248
-45,488
-43,67
-41,806
-39,906
-37,982
-36,041
-34,083
-32,113
-30,143
-28,181
-26,23
-24,294
-22,368
-20,464
-18,612
-16,839
-15,172
-13,629
-12,219
-10,955
-9,851
-8,924
-8,197
-7,684
-7,391
-7,332
-7,524
-7,988
-8,748
-9,808
-11,147
-12,753
-14,609
-16,706
-19,042
-21,603
-24,366
-27,304
-30,385
-33,577
-36,851
-40,169
-43,488
-46,763
-49,943
-52,991
-55,884
-58,589
-61,075
-63,312
-65,267
-66,927
-68,303
-69,408
-70,281
-70,967
-71,5
-71,932
-72,326
-72,742
-73,258
-73,949
-74,87
-76,114
-77,798
-79,989
-82,716
-85,89
-89,274
-92,624
-95,693
-98,174
-99,752
-100,16
-99,237
-97,19
-94,549
-91,851
-89,597
-88,142
-87,695
-88,42
-90,219
-92,269
-93,132
-91,171
-84,651
-72,234
-52,944
-25,77
9,902
53,688
104,299
159,75
217,375
274,679
329,399
378,831
420,298
451,735
471,6
479,053
474,303
457,709
429,503
390,646
342,616
287,079
226,202
162,288
97,028
32,221
-29,67
-86,392
-135,962
-176,644
-207,685
-229,015
-240,363
-241,86
-234,755
-220,748
-201,946
-180,753
-158,898
-137,678
-118,686
-103,232
-91,759
-84,212
-79,956
-77,856
-77,116
-77,046
-76,609
-74,961
-71,728
-66,809
-60,52
-53,499
-46,209
-39,124
-32,918
-28,053
-24,747
-23,085
-22,896
-23,882
-25,812
-28,4
-31,279
-34,206
-36,999
-39,513
-41,705
-43,535
-44,941
-45,897
-46,39
-46,403
-45,939
-45,012
-43,637
-41,852
-39,706
-37,252
-34,549
-31,648
-28,595
-25,443
-22,231
-19,004
-15,802
-12,664
-9,631
-6,733
-3,986
-1,391
1,06
3,38
5,586
7,698
9,743
11,747
13,731
15,717
17,723
19,768
21,874
24,066
26,369
28,805
31,388
34,131
37,044
40,134
43,409
46,873
50,529
54,378
58,423
62,666
67,112
71,762
76,615
81,667
86,915
92,354
97,983
103,8
109,803
115,981
122,325
128,821
135,453
142,202
149,05
155,974
162,951
169,964
176,999
184,047
191,101
198,145
205,163
212,13
219,021
225,821
232,515
239,089
245,537
251,851
258,025
264,064
269,964
275,707
281,266
286,598
291,655
296,397
300,795
304,824
308,464
311,688
314,469
316,785
318,607
319,908
320,656
320,806
320,325
319,205
317,448
315,082
312,15
308,679
304,695
300,227
295,295
289,924
284,142
277,97
271,433
264,563
257,398
249,991
242,391
234,628
226,725
218,69
210,52
202,222
193,809
185,288
176,676
167,99
159,249
150,48
141,712
132,966
124,259
115,602
107,005
98,485
90,065
81,769
73,629
65,669
57,913
50,385
43,106
36,093
29,358
22,909
16,75
10,888
5,329
0,079
-4,857
-9,474
-13,773
-17,754
-21,42
-24,775
-27,824
-30,574
-33,033
-35,21
-37,111
-38,745
-40,121
-41,247
-42,134
-42,791
-43,232
-43,467
-43,509
-43,371
-43,067
-42,611
-42,015
-41,292
-40,457
-39,522
-38,5
-37,404
-36,246
-35,038
-33,792
-32,52
-31,232
-29,94
-28,654
-27,384
-26,139
-24,929
-23,76
-22,641
-21,577
-20,577
-19,644
-18,784
-18,001
-17,298
-16,68
-16,148
-15,704
-15,35
-15,086
-14,913
-14,829
-14,834
-14,927
-15,104
-15,364
-15,705
-16,122
-16,612
-17,172
-17,797
-18,483
-19,226
-20,02
-20,859
-21,74
-22,656
-23,601
-24,571
-25,561
-26,565
-27,577
-28,595
-29,612
-30,624
-31,628
-32,62
-33,595
-34,551
-35,483
-36,39
-37,268
-38,116
-38,932
-39,713
-40,46
-41,17
-41,843
-42,479
-43,077
-43,638
-44,163
-44,651
-45,103
-45,522
-45,909
-46,266
-46,594
-46,896
-47,174
-47,43
-47,666
-47,885
-48,089
-48,28
-48,459
-48,629
-48,792
-48,948
-49,101
-49,25
-49,399
-49,547
-49,696
-49,847
-50,001
-50,159
-50,32
-50,486
-50,656
-50,832
-51,012
-51,198
-51,389
-51,584
-51,784
-51,987
-52,192
-52,399
-52,607
-52,814
-53,02
-53,224
-53,424
-53,62
-53,811
-53,997
-54,176
-54,349
-54,514
-54,672
-54,823
-54,965
-55,1
-55,227
-55,346
-55,458
-55,563
-55,661
-55,753
-55,838
-55,919
-55,994
-56,065
-56,132
-56,196
-56,258
-56,318
-56,378
-56,438
-56,5
-56,564
-56,633
-56,706
-56,784
-56,87
-56,962
-57,062
-57,17
-57,286
-57,411
-57,544
-57,685
-57,835
-57,993
-58,158
-58,33
-58,508
-58,691
-58,879
-59,071
-59,265
-59,461
-59,657
-59,853
-60,047
-60,239
-60,426
-60,607
-60,782
-60,948
-61,104
-61,248
-61,38
-61,496
-61,596
-61,679
-61,744
-61,789
-61,814
-61,818
-61,802
-61,764
-61,705
-61,625
-61,525
-61,404
-61,264
-61,106
-60,931
-60,74
-60,534
-60,316
-60,087
-59,849
-59,604
-59,353
-59,099
-58,843
-58,589
-58,337
-58,091
-57,853
-57,625
-57,41
-57,21
-57,028
-56,864
-56,722
-56,603
-56,508
-56,438
-56,395
-56,378
-56,388
-56,426
-56,491
-56,583
-56,7
-56,843
-57,009
-57,197
-57,406
-57,632
-57,875
-58,131
-58,398
-58,674
-58,955
-59,241
-59,527
-59,811
-60,09
-60,361
-60,622
-60,869
-61,101
-61,313
-61,505
-61,673
-61,817
-61,934
-62,024
-62,085
-62,118
-62,122
-62,098
-62,047
-61,968
-61,864
-61,736
-61,586
-61,416
-61,228
-61,025
-60,81
-60,586
-60,356
-60,123
-59,89
-59,66
-59,436
-59,222
-59,021
-58,835
-58,667
-58,521
-58,398
-58,301
-58,233
-58,195
-58,189
-58,213
-58,27
-58,359
-58,477
-58,624
-58,795
-58,99
-59,204
-59,434
-59,677
-59,928
-60,184
-60,44
-60,693
-60,936
-61,165
-61,374
-61,555
-61,704
-61,814
-61,876
-61,886
-61,835
-61,716
-61,525
-61,255
-60,899
-60,45
-59,899
-59,239
-58,469
-57,587
-56,594
-55,492
-54,287
-52,989
-51,612
-50,167
-48,666
-47,118
-45,527
-43,905
-42,26
-40,6
-38,935
-37,269
-35,6
-33,927
-32,246
-30,545
-28,813
-27,031
-25,175
-23,232
-21,193
-19,055
-16,824
-14,504
-12,106
-9,649
-7,158
-4,663
-2,206
0,167
2,406
4,444
6,221
7,675
8,736
9,354
9,486
9,094
8,15
6,638
4,545
1,88
-1,336
-5,073
-9,282
-13,898
-18,845
-24,022
-29,334
-34,694
-40,005
-45,185
-50,158
-54,839
-59,153
-63,039
-66,443
-69,323
-71,672
-73,484
-74,781
-75,618
-76,06
-76,193
-76,122
-75,942
-75,756
-75,677
-75,798
-76,241
-77,168
-78,681
-80,836
-83,604
-86,791
-90,17
-93,532
-96,569
-98,925
-100,34
-100,633
-99,898
-98,654
-97,449
-96,773
-97,12
-98,784
-101,839
-106,135
-110,923
-114,706
-115,775
-112,311
-102,526
-85,083
-58,937
-23,416
21,321
74,129
133,242
196,298
260,528
323,296
381,897
433,606
476,062
507,469
526,461
532,284
524,904
504,479
471,528
427,168
372,944
310,708
242,828
171,848
100,011
29,834
-35,965
-95,029
-145,351
-185,392
-214,592
-232,98
-240,596
-238,232
-227,548
-210,507
-189,384
-166,477
-143,463
-121,784
-103,112
-88,609
-78,599
-72,88
-70,69
-71,009
-73,065
-76,046
-78,765
-80,147
-79,643
-77,136
-72,925
-67,531
-61,366
-54,851
-48,644
-43,426
-39,587
-37,254
-36,312
-36,484
-37,538
-39,273
-41,391
-43,581
-45,622
-47,366
-48,755
-49,802
-50,495
-50,811
-50,742
-50,277
-49,418
-48,187
-46,601
-44,683
-42,471
-40,002
-37,323
-34,48
-31,514
-28,469
-25,38
-22,273
-19,176
-16,117
-13,125
-10,238
-7,477
-4,847
-2,346
0,037
2,315
4,501
6,614
8,679
10,72
12,757
14,808
16,888
19,015
21,21
23,496
25,901
28,445
31,143
34,008
37,052
40,282
43,705
47,326
51,146
55,164
59,385
63,81
68,443
73,286
78,337
83,594
89,056
94,715
100,568
106,611
112,838
119,246
125,827
132,569
139,461
146,487
153,629
160,866
168,174
175,522
182,882
190,228
197,538
204,791
211,964
219,027
225,955
232,722
239,307
245,698
251,883
257,852
263,605
269,148
274,496
279,672
284,686
289,537
294,218
298,718
303,03
307,151
311,07
314,769
318,224
321,406
324,287
326,835
328,998
330,708
331,886
332,45
332,34
331,515
329,942
327,594
324,437
320,449
315,624
309,971
303,509
296,25
288,209
279,415
269,926
259,83
249,233
238,237
226,929
215,39
203,699
191,945
180,224
168,613
157,174
145,957
135,011
124,397
114,186
104,425
95,138
86,32
77,954
70,028
62,537
55,469
48,8
42,496
36,511
30,817
25,403
20,256
15,364
10,698
6,22
1,907
-2,248
-6,241
-10,066
-13,721
-17,21
-20,526
-23,651
-26,562
-29,23
-31,643
-33,801
-35,701
-37,345
-38,727
-39,842
-40,691
-41,288
-41,645
-41,777
-41,695
-41,411
-40,942
-40,315
-39,556
-38,694
-37,752
-36,748
-35,699
-34,621
-33,531
-32,442
-31,366
-30,309
-29,279
-28,286
-27,337
-26,441
-25,604
-24,828
-24,117
-23,471
-22,892
-22,383
-21,944
-21,577
-21,282
-21,06
-20,911
-20,837
-20,836
-20,908
-21,05
-21,26
-21,534
-21,868
-22,26
-22,703
-23,193
-23,727
-24,3
-24,907
-25,543
-26,206
-26,889
-27,588
-28,3
-29,02
-29,743
-30,466
-31,185
-31,897
-32,598
-33,286
-33,958
-34,612
-35,244
-35,854
-36,44
-37
-37,532
-38,038
-38,515
-38,964
-39,385
-39,779
-40,147
-40,489
-40,809
-41,106
-41,383
-41,642
-41,885
-42,114
-42,331
-42,538
-42,738
-42,932
-43,124
-43,314
-43,506
-43,701
-43,901
-44,108
-44,324
-44,55
-44,787
-45,036
-45,3
-45,578
-45,872
-46,182
-46,507
-46,849
-47,207
-47,581
-47,97
-48,372
-48,788
-49,215
-49,652
-50,098
-50,55
-51,008
-51,469
-51,93
-52,39
-52,847
-53,298
-53,741
-54,175
-54,597
-55,006
-55,399
-55,776
-56,134
-56,472
-56,79
-57,086
-57,359
-57,609
-57,834
-58,035
-58,211
-58,361
-58,487
-58,588
-58,664
-58,716
-58,745
-58,751
-58,735
-58,698
-58,642
-58,568
-58,476
-58,37
-58,25
-58,119
-57,977
-57,827
-57,67
-57,508
-57,343
-57,176
-57,008
-56,842
-56,677
-56,516
-56,358
-56,205
-56,058
-55,917
-55,782
-55,655
-55,535
-55,422
-55,318
-55,222
-55,134
-55,055
-54,985
-54,923
-54,869
-54,824
-54,787
-54,757
-54,735
-54,719
-54,71
-54,707
-54,709
-54,715
-54,725
-54,738
-54,754
-54,772
-54,791
-54,811
-54,831
-54,852
-54,872
-54,893
-54,913
-54,933
-54,954
-54,974
-54,995
-55,017
-55,04
-55,064
-55,089
-55,115
-55,143
-55,173
-55,205
-55,24
-55,278
-55,318
-55,363
-55,411
-55,463
-55,52
-55,581
-55,647
-55,718
-55,795
-55,877
-55,965
-56,06
-56,161
-56,268
-56,382
-56,501
-56,626
-56,757
-56,891
-57,029
-57,17
-57,312
-57,455
-57,597
-57,739
-57,878
-58,013
-58,144
-58,27
-58,387
-58,496
-58,594
-58,681
-58,754
-58,814
-58,858
-58,886
-58,897
-58,891
-58,867
-58,826
-58,766
-58,688
-58,591
-58,477
-58,344
-58,194
-58,029
-57,848
-57,655
-57,45
-57,236
-57,015
-56,79
-56,564
-56,337
-56,114
-55,895
-55,684
-55,484
-55,296
-55,124
-54,97
-54,838
-54,732
-54,657
-54,615
-54,611
-54,646
-54,721
-54,837
-54,995
-55,195
-55,434
-55,711
-56,024
-56,376
-56,769
-57,205
-57,678
-58,183
-58,709
-59,246
-59,787
-60,32
-60,831
-61,31
-61,75
-62,147
-62,51
-62,839
-63,131
-63,375
-63,551
-63,646
-63,655
-63,579
-63,423
-63,194
-62,897
-62,55
-62,184
-61,823
-61,478
-61,142
-60,788
-60,394
-59,951
-59,459
-58,926
-58,358
-57,743
-57,062
-56,301
-55,436
-54,438
-53,26
-51,826
-50,065
-47,938
-45,436
-42,584
-39,414
-35,941
-32,182
-28,158
-23,893
-19,434
-14,835
-10,145
-5,422
-0,746
3,78
8,017
11,82
15,079
17,721
19,706
21,01
21,602
21,462
20,585
18,98
16,669
13,68
10,035
5,765
0,93
-4,386
-10,064
-15,963
-21,97
-27,986
-33,927
-39,721
-45,298
-50,593
-55,564
-60,175
-64,393
-68,182
-71,493
-74,286
-76,543
-78,267
-79,492
-80,278
-80,685
-80,785
-80,65
-80,354
-79,985
-79,63
-79,369
-79,285
-79,453
-79,969
-80,981
-82,587
-84,829
-87,672
-90,915
-94,317
-97,659
-100,634
-102,882
-104,156
-104,273
-103,294
-101,686
-99,947
-98,518
-97,869
-98,277
-99,772
-102,208
-104,924
-106,549
-105,556
-100,309
-89,127
-70,768
-44,309
-9,098
34,8
86,402
144,23
206,202
269,706
332,245
391,242
443,96
487,913
521,076
541,716
548,718
541,827
521,042
486,785
440,2
382,926
316,998
245,098
170,099
94,472
20,846
-48,028
-109,814
-162,501
-204,533
-235,407
-255,264
-264,195
-262,904
-252,877
-235,898
-214,158
-190
-165,154
-141,065
-119,451
-101,656
-88,26
-79,339
-74,337
-72,286
-72,418
-73,953
-75,697
-76,488
-75,648
-72,902
-68,425
-62,712
-56,181
-49,268
-42,661
-37,098
-33,039
-30,675
-29,935
-30,548
-32,259
-34,834
-37,941
-41,214
-44,389
-47,296
-49,852
-52,057
-53,898
-55,341
-56,376
-56,997
-57,187
-56,946
-56,281
-55,2
-53,733
-51,924
-49,812
-47,445
-44,87
-42,127
-39,253
-36,281
-33,234
-30,137
-27,022
-23,921
-20,873
-17,896
-14,997
-12,176
-9,424
-6,728
-4,076
-1,448
1,178
3,823
6,506
9,24
12,036
14,91
17,88
20,968
24,197
27,582
31,132
34,854
38,751
42,826
47,081
51,513
56,115
60,884
65,819
70,92
76,19
81,627
87,224
92,972
98,867
104,907
111,096
117,44
123,933
130,567
137,333
144,217
151,208
158,291
165,437
172,604
179,767
186,91
194,031
201,142
208,224
215,212
222,038
228,654
235,009
241,063
246,793
252,158
257,174
261,965
266,685
271,42
276,298
281,528
286,991
292,433
297,786
302,412
306,628
312,192
318,784
325,835
330,97
328,073
317,131
301,923
291,046
295,633
309,091
339,421
403,078
443,902
406,235
344,004
316,274
305,573
294,368
289,358
287,353
282,352
274,299
264,685
255,575
247,111
238,478
229,498
219,847
209,477
198,623
187,299
175,588
163,816
152,181
140,729
129,48
118,394
107,466
96,775
86,39
76,325
66,6
57,246
48,301
39,829
31,881
24,484
17,659
11,41
5,731
0,619
-3,934
-7,953
-11,475
-14,559
-17,288
-19,729
-21,935
-23,952
-25,814
-27,557
-29,218
-30,82
-32,377
-33,898
-35,385
-36,842
-38,28
-39,692
-41,064
-42,365
-43,554
-44,6
-45,488
-46,204
-46,746
-47,113
-47,303
-47,324
-47,195
-46,931
-46,547
-46,054
-45,461
-44,78
-44,032
-43,236
-42,42
-41,602
-40,796
-40,014
-39,265
-38,556
-37,892
-37,274
-36,699
-36,165
-35,674
-35,225
-34,823
-34,468
-34,161
-33,9
-33,686
-33,518
-33,395
-33,319
-33,286
-33,298
-33,353
-33,451
-33,594
-33,78
-34,009
-34,279
-34,587
-34,932
-35,313
-35,725
-36,168
-36,638
-37,134
-37,653
-38,195
-38,757
-39,337
-39,935
-40,547
-41,172
-41,808
-42,452
-43,103
-43,757
-44,414
-45,069
-45,721
-46,366
-47,004
-47,632
-48,248
-48,849
-49,436
-50,005
-50,556
-51,088
-51,6
-52,092
-52,562
-53,012
-53,439
-53,845
-54,229
-54,593
-54,935
-55,256
-55,556
-55,837
-56,098
-56,34
-56,564
-56,771
-56,962
-57,139
-57,302
-57,454
-57,596
-57,729
-57,856
-57,977
-58,096
-58,212
-58,328
-58,444
-58,563
-58,684
-58,81
-58,94
-59,076
-59,217
-59,365
-59,519
-59,68
-59,847
-60,021
-60,202
-60,389
-60,582
-60,78
-60,984
-61,191
-61,403
-61,617
-61,833
-62,049
-62,264
-62,477
-62,686
-62,89
-63,086
-63,274
-63,452
-63,618
-63,772
-63,912
-64,037
-64,146
-64,238
-64,313
-64,371
-64,411
-64,433
-64,436
-64,422
-64,39
-64,341
-64,275
-64,193
-64,095
-63,982
-63,854
-63,714
-63,562
-63,399
-63,227
-63,046
-62,859
-62,668
-62,474
-62,279
-62,084
-61,893
-61,706
-61,525
-61,352
-61,187
-61,033
-60,891
-60,76
-60,642
-60,537
-60,445
-60,367
-60,302
-60,25
-60,21
-60,183
-60,167
-60,162
-60,166
-60,179
-60,2
-60,228
-60,261
-60,298
-60,337
-60,378
-60,419
-60,457
-60,492
-60,521
-60,543
-60,556
-60,559
-60,55
-60,528
-60,492
-60,441
-60,374
-60,292
-60,194
-60,08
-59,95
-59,806
-59,649
-59,478
-59,296
-59,103
-58,901
-58,692
-58,477
-58,258
-58,038
-57,816
-57,596
-57,379
-57,168
-56,963
-56,767
-56,581
-56,408
-56,248
-56,105
-55,978
-55,871
-55,783
-55,717
-55,673
-55,651
-55,652
-55,676
-55,722
-55,791
-55,88
-55,99
-56,119
-56,266
-56,43
-56,609
-56,802
-57,006
-57,221
-57,444
-57,673
-57,907
-58,144
-58,381
-58,618
-58,852
-59,082
-59,307
-59,525
-59,734
-59,934
-60,124
-60,301
-60,466
-60,618
-60,756
-60,88
-60,989
-61,085
-61,167
-61,236
-61,292
-61,337
-61,369
-61,39
-61,4
-61,397
-61,382
-61,354
-61,313
-61,258
-61,189
-61,105
-61,006
-60,893
-60,764
-60,62
-60,459
-60,278
-60,076
-59,851
-59,599
-59,317
-59,001
-58,648
-58,254
-57,816
-57,329
-56,789
-56,19
-55,524
-54,785
-53,971
-53,08
-52,111
-51,066
-49,949
-48,767
-47,531
-46,25
-44,931
-43,582
-42,203
-40,801
-39,38
-37,946
-36,504
-35,055
-33,594
-32,114
-30,607
-29,057
-27,451
-25,768
-23,981
-22,076
-20,043
-17,879
-15,591
-13,184
-10,665
-8,055
-5,374
-2,652
0,068
2,74
5,315
7,723
9,903
11,789
13,306
14,406
15,047
15,193
14,822
13,912
12,446
10,424
7,856
4,758
1,169
-2,868
-7,291
-12,009
-16,935
-21,981
-27,051
-32,071
-36,973
-41,685
-46,148
-50,296
-54,063
-57,401
-60,268
-62,629
-64,482
-65,841
-66,743
-67,265
-67,478
-67,458
-67,309
-67,122
-66,997
-67,05
-67,375
-68,093
-69,384
-71,353
-74,045
-77,405
-81,182
-85,096
-88,898
-92,234
-94,705
-96,06
-96,175
-95,282
-94,084
-93,257
-93,374
-94,976
-98,377
-103,622
-110,388
-117,552
-123,17
-125,176
-121,474
-110,123
-89,655
-58,89
-17,288
34,527
94,802
161,173
230,732
300,335
366,958
427,425
478,854
519,09
546,73
560,946
561,51
548,756
523,27
486,067
438,511
382,127
318,564
249,813
178,066
105,33
33,853
-33,888
-95,606
-149,189
-192,807
-225,51
-246,986
-256,987
-256,043
-245,633
-227,643
-204,427
-178,554
-152,019
-126,567
-104,18
-86,284
-73,409
-65,509
-61,858
-61,319
-62,97
-65,829
-68,52
-69,826
-69,089
-66,111
-61,184
-54,895
-47,743
-40,261
-33,219
-27,372
-23,159
-20,737
-19,985
-20,597
-22,306
-24,857
-27,907
-31,113
-34,229
-37,081
-39,595
-41,766
-43,566
-44,956
-45,911
-46,404
-46,423
-45,978
-45,08
-43,754
-42,035
-39,961
-37,579
-34,939
-32,086
-29,07
-25,934
-22,71
-19,438
-16,154
-12,901
-9,726
-6,661
-3,714
-0,885
1,837
4,464
7,008
9,49
11,936
14,369
16,81
19,275
21,778
24,335
26,968
29,702
32,564
35,574
38,746
42,092
45,619
49,336
53,249
57,359
61,661
66,156
70,847
75,736
80,83
86,13
91,632
97,332
103,222
109,293
115,533
121,928
128,457
135,103
141,852
148,688
155,602
162,579
169,603
176,659
183,729
190,798
197,861
204,908
211,935
218,946
225,945
232,941
239,951
246,981
254,03
261,094
268,157
275,206
282,223
289,178
296,042
302,78
309,34
315,674
321,724
327,414
332,674
337,432
341,606
345,135
347,963
350,045
351,352
351,863
351,563
350,459
348,563
345,896
342,497
338,412
333,694
328,418
322,651
316,457
309,907
303,058
295,96
288,658
281,176
273,53
265,731
257,777
249,663
241,381
232,909
224,225
215,307
206,126
196,67
186,937
176,928
166,658
156,15
145,437
134,572
123,624
112,665
101,77
91,013
80,468
70,219
60,344
50,912
41,985
33,608
25,814
18,625
12,055
6,105
0,762
-4,003
-8,235
-11,988
-15,313
-18,256
-20,867
-23,199
-25,302
-27,22
-28,988
-30,628
-32,161
-33,603
-34,965
-36,254
-37,469
-38,6
-39,629
-40,533
-41,296
-41,907
-42,358
-42,639
-42,747
-42,679
-42,442
-42,05
-41,515
-40,848
-40,063
-39,174
-38,199
-37,159
-36,075
-34,973
-33,872
-32,788
-31,738
-30,732
-29,782
-28,895
-28,076
-27,327
-26,648
-26,042
-25,511
-25,056
-24,678
-24,375
-24,145
-23,987
-23,897
-23,874
-23,915
-24,019
-24,183
-24,405
-24,684
-25,019
-25,408
-25,847
-26,335
-26,869
-27,444
-28,058
-28,708
-29,389
-30,099
-30,833
-31,589
-32,364
-33,155
-33,959
-34,773
-35,595
-36,421
-37,25
-38,08
-38,907
-39,73
-40,547
-41,357
-42,157
-42,947
-43,724
-44,488
-45,238
-45,971
-46,688
-47,388
-48,069
-48,731
-49,374
-49,996
-50,598
-51,179
-51,739
-52,278
-52,795
-53,292
-53,768
-54,224
-54,66
-55,078
-55,478
-55,86
-56,227
-56,579
-56,918
-57,245
-57,561
-57,868
-58,168
-58,462
-58,752
-59,038
-59,324
-59,609
-59,895
-60,183
-60,474
-60,77
-61,07
-61,376
-61,688
-62,008
-62,335
-62,671
-63,016
-63,37
-63,733
-64,107
-64,49
-64,883
-65,285
-65,696
-66,115
-66,54
-66,972
-67,407
-67,846
-68,286
-68,724
-69,16
-69,591
-70,015
-70,429
-70,831
-71,22
-71,593
-71,948
-72,285
-72,6
-72,894
-73,165
-73,411
-73,633
-73,829
-73,999
-74,143
-74,258
-74,346
-74,406
-74,438
-74,442
-74,417
-74,365
-74,287
-74,181
-74,051
-73,896
-73,718
-73,519
-73,301
-73,065
-72,814
-72,55
-72,276
-71,995
-71,71
-71,423
-71,138
-70,856
-70,58
-70,313
-70,057
-69,813
-69,583
-69,368
-69,171
-68,992
-68,832
-68,693
-68,575
-68,48
-68,407
-68,359
-68,334
-68,333
-68,356
-68,404
-68,477
-68,573
-68,693
-68,836
-69
-69,186
-69,392
-69,615
-69,854
-70,106
-70,369
-70,64
-70,917
-71,197
-71,477
-71,755
-72,029
-72,295
-72,552
-72,798
-73,031
-73,248
-73,448
-73,629
-73,79
-73,929
-74,045
-74,138
-74,206
-74,249
-74,266
-74,257
-74,22
-74,156
-74,063
-73,943
-73,796
-73,62
-73,418
-73,191
-72,939
-72,665
-72,37
-72,056
-71,727
-71,385
-71,033
-70,674
-70,311
-69,947
-69,586
-69,232
-68,888
-68,557
-68,242
-67,946
-67,672
-67,423
-67,2
-67,005
-66,841
-66,709
-66,61
-66,547
-66,521
-66,532
-66,583
-66,673
-66,803
-66,974
-67,185
-67,436
-67,726
-68,054
-68,419
-68,818
-69,251
-69,712
-70,2
-70,71
-71,238
-71,778
-72,325
-72,871
-73,413
-73,942
-74,455
-74,944
-75,406
-75,835
-76,228
-76,581
-76,889
-77,147
-77,349
-77,49
-77,565
-77,567
-77,491
-77,331
-77,083
-76,743
-76,309
-75,779
-75,149
-74,416
-73,574
-72,619
-71,553
-70,376
-69,091
-67,702
-66,219
-64,654
-63,029
-61,357
-59,65
-57,913
-56,146
-54,353
-52,536
-50,698
-48,84
-46,964
-45,066
-43,148
-41,219
-39,277
-37,316
-35,32
-33,262
-31,129
-28,924
-26,655
-24,342
-22,008
-19,676
-17,383
-15,175
-13,091
-11,169
-9,439
-7,916
-6,634
-5,632
-4,958
-4,669
-4,805
-5,381
-6,413
-7,905
-9,849
-12,231
-15,017
-18,147
-21,579
-25,273
-29,193
-33,312
-37,574
-41,91
-46,255
-50,534
-54,681
-58,649
-62,381
-65,818
-68,923
-71,663
-74,026
-76,024
-77,656
-78,927
-79,857
-80,468
-80,819
-80,98
-81,02
-81,02
-81,072
-81,26
-81,687
-82,452
-83,642
-85,387
-87,761
-90,768
-94,354
-98,321
-102,431
-106,489
-110,208
-113,234
-115,325
-116,301
-116,18
-115,415
-114,467
-113,643
-113,326
-113,733
-114,846
-116,648
-118,663
-119,595
-118,013
-112,518
-101,586
-84,169
-59,536
-26,825
14,194
62,636
117,099
175,651
235,717
294,976
351,156
401,403
443,048
474,121
493,068
499,018
492,09
472,529
440,698
397,802
345,531
285,761
220,714
152,685
83,502
15,027
-50,454
-110,797
-164,129
-208,854
-243,941
-268,98
-283,588
-287,508
-281,326
-266,377
-244,468
-217,764
-188,416
-158,201
-128,99
-102,952
-81,753
-66,188
-56,333
-51,605
-51,076
-53,892
-58,995
-64,805
-69,791
-73,013
-74,073
-73,077
-70,44
-66,532
-61,787
-56,964
-52,896
-50,076
-48,677
-48,6
-49,554
-51,287
-53,58
-56,1
-58,456
-60,391
-61,763
-62,527
-62,727
-62,39
-61,527
-60,184
-58,433
-56,335
-53,947
-51,315
-48,467
-45,444
-42,297
-39,066
-35,798
-32,534
-29,307
-26,152
-23,109
-20,2
-17,437
-14,828
-12,363
-10,031
-7,82
-5,707
-3,668
-1,679
0,285
2,244
4,218
6,229
8,298
10,449
12,707
15,093
17,623
20,312
23,171
26,207
29,43
32,842
36,443
40,236
44,222
48,404
52,785
57,368
62,151
67,134
72,314
77,689
83,256
89,009
94,943
101,054
107,336
113,788
120,403
127,171
134,077
141,107
148,241
155,46
162,739
170,048
177,361
184,65
191,897
199,084
206,19
213,193
220,065
226,78
233,319
239,671
245,826
251,774
257,515
263,054
268,408
273,607
278,667
283,595
288,385
293,023
297,5
301,813
305,957
309,922
313,686
317,218
320,493
323,485
326,153
328,444
330,276
331,556
332,213
332,198
331,475
330,022
327,81
324,806
320,992
316,368
310,943
304,737
297,76
290,019
281,548
272,408
262,695
252,523
241,984
231,155
220,109
208,917
197,664
186,443
175,323
164,355
153,587
143,065
132,853
123,02
113,611
104,641
96,102
87,967
80,227
72,876
65,903
59,283
52,98
46,949
41,165
35,62
30,301
25,194
20,269
15,488
10,828
6,286
1,867
-2,419
-6,568
-10,581
-14,447
-18,145
-21,648
-24,925
-27,961
-30,752
-33,294
-35,584
-37,613
-39,369
-40,853
-42,072
-43,037
-43,758
-44,244
-44,502
-44,55
-44,41
-44,108
-43,671
-43,118
-42,466
-41,731
-40,927
-40,07
-39,175
-38,25
-37,304
-36,344
-35,38
-34,422
-33,477
-32,555
-31,658
-30,79
-29,955
-29,156
-28,398
-27,685
-27,018
-26,401
-25,839
-25,334
-24,891
-24,513
-24,2
-23,954
-23,775
-23,662
-23,616
-23,634
-23,716
-23,858
-24,058
-24,314
-24,624
-24,984
-25,392
-25,844
-26,336
-26,864
-27,425
-28,016
-28,631
-29,268
-29,922
-30,591
-31,271
-31,958
-32,649
-33,341
-34,031
-34,715
-35,39
-36,053
-36,701
-37,332
-37,944
-38,533
-39,099
-39,639
-40,153
-40,64
-41,099
-41,529
-41,932
-42,306
-42,654
-42,974
-43,269
-43,539
-43,785
-44,009
-44,213
-44,397
-44,564
-44,714
-44,85
-44,971
-45,081
-45,18
-45,269
-45,351
-45,425
-45,495
-45,56
-45,623
-45,683
-45,744
-45,804
-45,867
-45,931
-45,998
-46,069
-46,142
-46,22
-46,3
-46,383
-46,468
-46,555
-46,642
-46,728
-46,813
-46,895
-46,973
-47,047
-47,117
-47,181
-47,24
-47,292
-47,338
-47,378
-47,412
-47,44
-47,462
-47,477
-47,488
-47,493
-47,495
-47,492
-47,487
-47,479
-47,469
-47,457
-47,445
-47,433
-47,421
-47,41
-47,401
-47,396
-47,396
-47,402
-47,415
-47,436
-47,466
-47,505
-47,552
-47,607
-47,668
-47,734
-47,803
-47,875
-47,947
-48,018
-48,088
-48,154
-48,215
-48,268
-48,31
-48,338
-48,348
-48,335
-48,296
-48,226
-48,121
-47,977
-47,793
-47,568
-47,298
-46,979
-46,607
-46,177
-45,687
-45,139
-44,531
-43,869
-43,157
-42,404
-41,626
-40,838
-40,054
-39,285
-38,54
-37,825
-37,147
-36,513
-35,927
-35,391
-34,898
-34,441
-34,011
-33,596
-33,181
-32,742
-32,245
-31,659
-30,959
-30,124
-29,138
-27,994
-26,692
-25,239
-23,655
-21,973
-20,24
-18,506
-16,829
