Lead,Lead I
106,507
129,057
151,714
173,841
194,483
212,385
226,782
237,4
244,461
248,755
250,879
251,146
250,131
248,617
247,13
245,968
245,023
243,722
241,733
239,008
235,457
231,021
225,715
219,584
212,875
206,044
199,39
193,054
187,118
181,548
176,304
171,361
166,631
161,995
157,377
152,727
148,015
143,244
138,4
133,459
128,414
123,247
117,951
112,533
107,013
101,44
95,887
90,445
85,201
80,221
75,552
71,227
67,271
63,693
60,489
57,635
55,09
52,826
50,824
49,066
47,53
46,179
44,956
43,796
42,647
41,465
40,218
38,882
37,434
35,864
34,181
32,41
30,59
28,747
26,892
25,03
23,164
21,302
19,46
17,652
15,881
14,151
12,464
10,821
9,23
7,686
6,179
4,691
3,198
1,686
0,149
-1,415
-3,008
-4,626
-6,27
-7,933
-9,604
-11,275
-12,937
-14,584
-16,213
-17,817
-19,387
-20,912
-22,385
-23,797
-25,142
-26,415
-27,612
-28,729
-29,764
-30,718
-31,592
-32,387
-33,104
-33,744
-34,308
-34,799
-35,22
-35,573
-35,863
-36,094
-36,27
-36,4
-36,489
-36,545
-36,577
-36,593
-36,601
-36,61
-36,629
-36,667
-36,73
-36,828
-36,968
-37,156
-37,399
-37,702
-38,071
-38,509
-39,02
-39,608
-40,273
-41,018
-41,843
-42,748
-43,734
-44,799
-45,942
-47,161
-48,453
-49,816
-51,246
-52,739
-54,291
-55,897
-57,551
-59,247
-60,979
-62,741
-64,525
-66,325
-68,133
-69,943
-71,748
-73,543
-75,32
-77,075
-78,803
-80,499
-82,159
-83,781
-85,361
-86,898
-88,39
-89,836
-91,234
-92,585
-93,89
-95,147
-96,36
-97,528
-98,653
-99,738
-100,784
-101,794
-102,771
-103,718
-104,637
-105,532
-106,408
-107,267
-108,113
-108,951
-109,785
-110,618
-111,455
-112,298
-113,151
-114,016
-114,896
-115,793
-116,707
-117,641
-118,594
-119,568
-120,561
-121,575
-122,607
-123,657
-124,725
-125,808
-126,906
-128,016
-129,138
-130,27
-131,409
-132,555
-133,705
-134,858
-136,012
-137,165
-138,315
-139,46
-140,597
-141,726
-142,842
-143,945
-145,032
-146,102
-147,152
-148,182
-149,191
-150,178
-151,141
-152,081
-152,997
-153,889
-154,756
-155,599
-156,417
-157,21
-157,978
-158,72
-159,438
-160,129
-160,794
-161,431
-162,04
-162,618
-163,165
-163,679
-164,157
-164,599
-165,002
-165,365
-165,686
-165,963
-166,194
-166,379
-166,514
-166,598
-166,63
-166,607
-166,527
-166,389
-166,191
-165,931
-165,608
-165,221
-164,768
-164,249
-163,663
-163,011
-162,291
-161,505
-160,653
-159,737
-158,758
-157,719
-156,624
-155,475
-154,278
-153,035
-151,754
-150,438
-149,094
-147,727
-146,342
-144,947
-143,546
-142,146
-140,753
-139,373
-138,014
-136,681
-135,381
-134,121
-132,906
-131,743
-130,638
-129,595
-128,621
-127,721
-126,898
-126,157
-125,502
-124,936
-124,463
-124,083
-123,799
-123,611
-123,519
-123,52
-123,613
-123,794
-124,059
-124,402
-124,819
-125,304
-125,852
-126,456
-127,11
-127,808
-128,545
-129,314
-130,108
-130,918
-131,735
-132,549
-133,351
-134,13
-134,876
-135,578
-136,225
-136,809
-137,322
-137,758
-138,108
-138,362
-138,508
-138,538
-138,448
-138,236
-137,901
-137,446
-136,873
-136,194
-135,428
-134,595
-133,705
-132,765
-131,771
-130,726
-129,631
-128,491
-127,307
-126,076
-124,786
-123,437
-122,029
-120,564
-119,033
-117,418
-115,683
-113,802
-111,766
-109,583
-107,274
-104,858
-102,361
-99,818
-97,272
-94,79
-92,429
-90,235
-88,245
-86,491
-85,02
-83,892
-83,179
-82,939
-83,203
-83,988
-85,3
-87,139
-89,491
-92,322
-95,573
-99,161
-103,014
-107,067
-111,258
-115,527
-119,802
-124,003
-128,052
-131,882
-135,442
-138,685
-141,562
-144,027
-146,053
-147,632
-148,779
-149,533
-149,922
-149,986
-149,793
-149,405
-148,888
-148,302
-147,668
-147,01
-146,369
-145,784
-145,329
-145,074
-145,048
-145,306
-145,905
-146,804
-147,9
-148,982
-149,679
-149,69
-148,783
-146,672
-143,175
-138,346
-132,436
-125,967
-119,596
-113,713
-108,542
-104,366
-101,286
-98,976
-96,601
-92,771
-86,055
-75,508
-60,5
-40,315
-14,313
17,661
54,89
95,585
137,673
179,414
219,295
255,587
286,154
308,848
322,154
325,766
319,953
304,998
281,074
248,509
208,41
162,586
113,11
61,609
9,327
-42,449
-92,042
-137,483
-177,124
-209,806
-235,155
-253,097
-263,383
-266,075
-261,813
-251,635
-237,052
-219,906
-201,473
-182,799
-165,23
-149,69
-136,791
-127,182
-120,815
-117,013
-115,355
-115,26
-115,802
-116,525
-117,041
-116,716
-115,417
-113,364
-110,668
-107,743
-105,188
-103,211
-101,983
-101,756
-102,481
-104,028
-106,285
-108,928
-111,581
-114,032
-116,087
-117,586
-118,495
-118,777
-118,412
-117,453
-115,96
-113,975
-111,546
-108,709
-105,492
-101,94
-98,104
-94,028
-89,763
-85,365
-80,899
-76,422
-71,973
-67,581
-63,256
-59,007
-54,845
-50,769
-46,77
-42,838
-38,958
-35,12
-31,318
-27,543
-23,78
-20,015
-16,224
-12,396
-8,522
-4,601
-0,63
3,39
7,459
11,573
15,721
19,897
24,093
28,306
32,535
36,777
41,027
45,28
49,532
53,779
58,022
62,257
66,481
70,693
74,89
79,074
83,243
87,4
91,545
95,677
99,797
103,908
108,01
112,107
116,198
120,285
124,37
128,453
132,538
136,631
140,732
144,842
148,956
153,07
157,175
161,262
165,318
169,326
173,266
177,124
180,884
184,537
188,073
191,485
194,76
197,886
200,857
203,676
206,351
208,894
211,319
213,642
215,884
218,079
220,253
222,425
224,6
226,771
228,926
231,051
233,131
235,149
237,073
238,854
240,438
241,768
242,779
243,411
243,588
243,213
242,209
240,52
238,107
234,962
231,08
226,454
221,092
215,008
208,235
200,828
192,844
184,341
175,391
166,072
156,489
146,775
137,041
127,374
117,846
108,499
99,382
90,548
82,037
73,878
66,093
58,688
51,681
45,097
38,942
33,208
27,859
22,833
18,083
13,589
9,333
5,314
1,526
-2,045
-5,403
-8,539
-11,448
-14,13
-16,593
-18,866
-20,959
-22,868
-24,575
-26,043
-27,25
-28,19
-28,856
-29,249
-29,369
-29,216
-28,799
-28,142
-27,259
-26,161
-24,852
-23,326
-21,587
-19,65
-17,534
-15,266
-12,87
-10,363
-7,764
-5,095
-2,372
0,387
3,174
5,983
8,808
11,635
14,455
17,251
20,011
22,726
25,39
27,994
30,533
33
35,391
37,704
39,935
42,079
44,131
46,085
47,936
49,679
51,311
52,829
54,23
55,512
56,673
57,714
58,633
59,431
60,108
60,663
61,096
61,41
61,605
61,683
61,647
61,499
61,243
60,884
60,425
59,872
59,229
58,502
57,696
56,817
55,871
54,862
53,798
52,685
51,53
50,339
49,119
47,877
46,621
45,358
44,094
42,836
41,591
40,365
39,165
37,997
36,867
35,78
34,744
33,762
32,841
31,984
31,195
30,478
29,836
29,27
28,781
28,371
28,039
27,787
27,612
27,514
27,491
27,542
27,664
27,853
28,107
28,422
28,792
29,215
29,685
30,197
30,747
31,33
31,939
32,57
33,218
33,877
34,54
35,203
35,86
36,505
37,133
37,739
38,319
38,867
39,381
39,857
40,292
40,683
41,029
41,327
41,576
41,776
41,926
42,026
42,077
42,079
42,033
41,942
41,807
41,629
41,413
41,159
40,87
40,55
40,201
39,826
39,428
39,011
38,577
38,131
37,674
37,212
36,747
36,281
35,819
35,363
34,914
34,476
34,049
33,637
33,24
32,86
32,496
32,151
31,823
31,514
31,223
30,948
30,69
30,447
30,218
30,002
29,798
29,603
29,417
29,237
29,064
28,894
28,728
28,564
28,401
28,237
28,073
27,907
27,739
27,569
27,396
27,223
27,047
26,872
26,697
26,524
26,355
26,191
26,034
25,888
25,753
25,633
25,532
25,451
25,394
25,365
25,367
25,404
25,478
25,594
25,755
25,963
26,222
26,534
26,901
27,326
27,809
28,352
28,956
29,621
30,347
31,133
31,977
32,879
33,836
34,845
35,902
37,005
38,149
39,33
40,542
41,78
43,039
44,312
45,594
46,878
48,157
49,423
50,67
51,891
53,077
54,221
55,317
56,357
57,334
58,241
59,072
59,82
60,48
61,048
61,517
61,883
62,144
62,296
62,336
62,263
62,077
61,775
61,36
60,831
60,19
59,439
58,58
57,617
56,552
55,391
54,137
52,795
51,37
49,869
48,296
46,659
44,963
43,215
41,422
39,591
37,728
35,84
33,934
32,018
30,096
28,177
26,266
24,369
22,491
20,638
18,816
17,027
15,276
13,567
11,903
10,286
8,72
7,206
5,745
4,34
2,99
1,697
0,46
-0,721
-1,846
-2,916
-3,932
-4,895
-5,807
-6,669
-7,483
-8,252
-8,977
-9,661
-10,306
-10,916
-11,493
-12,041
-12,561
-13,058
-13,535
-13,993
-14,438
-14,871
-15,297
-15,719
-16,139
-16,563
-16,992
-17,431
-17,882
-18,35
-18,835
-19,342
-19,873
-20,43
-21,015
-21,631
-22,28
-22,964
-23,684
-24,444
-25,243
-26,084
-26,967
-27,892
-28,86
-29,871
-30,924
-32,018
-33,153
-34,327
-35,539
-36,786
-38,066
-39,375
-40,709
-42,063
-43,431
-44,807
-46,184
-47,555
-48,913
-50,252
-51,564
-52,843
-54,083
-55,277
-56,419
-57,504
-58,522
-59,467
-60,33
-61,101
-61,773
-62,337
-62,786
-63,114
-63,315
-63,386
-63,323
-63,125
-62,787
-62,306
-61,675
-60,891
-59,954
-58,869
-57,642
-56,287
-54,819
-53,259
-51,625
-49,937
-48,208
-46,445
-44,649
-42,822
-40,963
-39,079
-37,183
-35,288
-33,406
-31,547
-29,716
-27,912
-26,125
-24,344
-22,55
-20,734
-18,899
-17,065
-15,265
-13,54
-11,942
-10,513
-9,282
-8,278
-7,524
-7,045
-6,866
-7,019
-7,539
-8,469
-9,855
-11,731
-14,115
-17,005
-20,381
-24,204
-28,414
-32,959
-37,791
-42,865
-48,138
-53,557
-59,063
-64,593
-70,084
-75,468
-80,675
-85,642
-90,308
-94,624
-98,55
-102,067
-105,177
-107,876
-110,169
-112,061
-113,564
-114,728
-115,621
-116,309
-116,848
-117,276
-117,632
-117,976
-118,379
-118,924
-119,7
-120,754
-122,134
-123,907
-126,051
-128,471
-130,979
-133,253
-134,975
-135,914
-135,871
-134,684
-132,421
-129,304
-125,678
-122,011
-118,543
-115,314
-112,204
-108,995
-105,215
-100,028
-92,456
-81,523
-66,644
-47,602
-24,483
2,638
33,62
67,713
103,895
140,956
177,683
213,167
246,695
277,073
302,655
322,084
334,107
337,926
333,285
319,679
296,465
263,791
222,66
174,618
121,824
66,136
8,971
-47,562
-100,764
-148,158
-187,616
-217,879
-238,686
-249,615
-250,197
-241,09
-223,897
-200,84
-174,695
-147,716
-121,557
-98,218
-79,557
-66,473
-59,158
-57
-58,592
-62,76
-68,439
-74,144
-78,634
-81,223
-81,562
-79,852
-76,742
-72,734
-68,393
-64,526
-61,683
-60,162
-60,101
-61,329
-63,538
-66,487
-69,868
-73,297
-76,514
-79,319
-81,567
-83,244
-84,354
-84,894
-84,9
-84,415
-83,466
-82,087
-80,314
-78,177
-75,717
-72,979
-70,004
-66,838
-63,532
-60,147
-56,74
-53,35
-50,001
-46,706
-43,476
-40,322
-37,248
-34,248
-31,307
-28,411
-25,546
-22,704
-19,878
-17,052
-14,209
-11,328
-8,394
-5,398
-2,337
0,794
3,997
7,277
10,633
14,059
17,551
21,105
24,719
28,392
32,124
35,907
39,738
43,611
47,524
51,476
55,468
59,498
63,567
67,676
71,826
76,024
80,269
84,561
88,899
93,282
97,712
102,195
106,73
111,315
115,947
120,619
125,323
130,052
134,791
139,515
144,205
148,837
153,401
157,892
162,308
166,641
170,888
175,038
179,095
183,069
186,968
190,795
194,556
198,256
201,913
205,566
209,242
212,958
216,718
220,499
224,278
228,033
231,729
235,324
238,76
241,957
244,852
247,397
249,537
251,227
252,398
252,961
252,844
251,995
250,38
247,992
244,828
240,887
236,197
230,8
224,762
218,17
211,094
203,585
195,698
187,486
179,016
170,378
161,643
152,867
144,098
135,37
126,717
118,176
109,76
101,464
93,274
85,161
77,114
69,139
61,242
53,43
45,709
38,073
30,53
23,099
15,795
8,637
1,641
-5,181
-11,804
-18,196
-24,323
-30,148
-35,643
-40,793
-45,58
-49,994
-54,026
-57,668
-60,92
-63,789
-66,279
-68,394
-70,14
-71,521
-72,548
-73,234
-73,593
-73,642
-73,395
-72,869
-72,078
-71,04
-69,77
-68,284
-66,596
-64,722
-62,676
-60,476
-58,14
-55,683
-53,123
-50,478
-47,763
-44,997
-42,193
-39,367
-36,531
-33,7
-30,883
-28,093
-25,338
-22,628
-19,971
-17,374
-14,843
-12,384
-10,001
-7,698
-5,479
-3,346
-1,3
0,657
2,525
4,303
5,991
7,591
9,101
10,525
11,862
13,116
14,287
15,379
16,394
17,334
18,203
19,003
19,737
20,408
21,018
21,569
22,063
22,501
22,886
23,217
23,497
23,726
23,905
24,035
24,115
24,147
24,13
24,065
23,951
23,79
23,581
23,325
23,022
22,675
22,283
21,848
21,372
20,856
20,302
19,712
19,088
18,433
17,75
17,04
16,307
15,553
14,784
14,001
13,208
12,41
11,609
10,811
10,018
9,236
8,468
7,718
6,991
6,289
5,618
4,979
4,378
3,817
3,298
2,824
2,398
2,021
1,694
1,418
1,194
1,022
0,901
0,831
0,811
0,839
0,914
1,034
1,196
1,398
1,637
1,911
2,216
2,549
2,908
3,288
3,686
4,099
4,524
4,955
5,391
5,828
6,263
6,692
7,113
7,523
7,919
8,299
8,66
9,002
9,322
9,62
9,893
10,142
10,367
10,566
10,74
10,89
11,015
11,116
11,194
11,25
11,283
11,296
11,288
11,26
11,214
11,15
11,069
10,973
10,861
10,735
10,595
10,443
10,279
10,104
9,917
9,721
9,515
9,299
9,075
8,842
8,601
8,352
8,095
7,831
7,559
7,279
6,992
6,697
6,396
6,087
5,772
5,452
5,128
4,8
4,47
4,14
3,81
3,482
3,158
2,839
2,527
2,223
1,931
1,651
1,385
1,136
0,905
0,694
0,506
0,341
0,202
0,089
0,006
-0,048
-0,069
-0,057
-0,011
0,071
0,191
0,348
0,544
0,779
1,053
1,365
1,715
2,103
2,526
2,985
3,478
4,002
4,558
5,141
5,752
6,388
7,046
7,725
8,422
9,136
9,863
10,602
11,351
12,107
12,869
13,635
14,401
15,167
15,929
16,686
17,435
18,175
18,902
19,615
20,311
20,99
21,65
22,288
22,905
23,498
24,067
24,611
25,129
25,62
26,083
26,518
26,924
27,301
27,647
27,963
28,248
28,501
28,722
28,909
29,061
29,178
29,259
29,303
29,309
29,276
29,204
29,093
28,941
28,748
28,515
28,241
27,924
27,566
27,166
26,723
26,237
25,708
25,136
24,52
23,86
23,156
22,408
21,615
20,778
19,895
18,968
17,997
16,981
15,922
14,819
13,674
12,487
11,26
9,994
8,69
7,349
5,973
4,563
3,121
1,649
0,148
-1,381
-2,934
-4,511
-6,109
-7,726
-9,359
-11,007
-12,667
-14,336
-16,011
-17,69
-19,369
-21,045
-22,714
-24,373
-26,018
-27,646
-29,253
-30,834
-32,386
-33,905
-35,387
-36,828
-38,225
-39,575
-40,872
-42,115
-43,299
-44,421
-45,479
-46,469
-47,388
-48,234
-49,006
-49,7
-50,316
-50,851
-51,306
-51,679
-51,97
-52,179
-52,307
-52,355
-52,325
-52,218
-52,037
-51,786
-51,468
-51,087
-50,646
-50,152
-49,608
-49,021
-48,396
-47,739
-47,056
-46,354
-45,639
-44,918
-44,198
-43,485
-42,787
-42,109
-41,458
-40,84
-40,261
-39,726
-39,241
-38,81
-38,438
-38,129
-37,886
-37,712
-37,608
-37,575
-37,616
-37,728
-37,913
-38,167
-38,488
-38,875
-39,322
-39,827
-40,383
-40,986
-41,63
-42,308
-43,012
-43,736
-44,47
-45,208
-45,94
-46,658
-47,354
-48,018
-48,643
-49,221
-49,743
-50,202
-50,591
-50,903
-51,132
-51,272
-51,319
-51,268
-51,117
-50,863
-50,506
-50,045
-49,481
-48,816
-48,053
-47,196
-46,25
-45,22
-44,115
-42,941
-41,708
-40,427
-39,108
-37,764
-36,411
-35,062
-33,734
-32,442
-31,203
-30,034
-28,951
-27,969
-27,102
-26,366
-25,775
-25,343
-25,087
-25,02
-25,156
-25,507
-26,085
-26,898
-27,955
-29,257
-30,807
-32,604
-34,651
-36,952
-39,514
-42,338
-45,42
-48,757
-52,335
-56,138
-60,141
-64,311
-68,61
-72,999
-77,443
-81,914
-86,382
-90,814
-95,169
-99,397
-103,445
-107,272
-110,841
-114,117
-117,087
-119,751
-122,128
-124,271
-126,232
-128,047
-129,761
-131,419
-133,07
-134,789
-136,658
-138,746
-141,162
-144,037
-147,418
-151,272
-155,431
-159,57
-163,386
-166,64
-169,044
-170,269
-170,155
-168,791
-166,637
-164,508
-163,016
-162,411
-162,785
-164,205
-166,554
-169,242
-170,952
-169,702
-163,705
-151,782
-133,218
-107,458
-73,949
-32,74
15,098
67,475
121,909
176,125
228,235
276,367
318,119
351,295
374,361
386,5
387,76
378,554
359,13
329,85
291,932
246,927
196,548
142,795
87,166
30,846
-24,616
-77,414
-126,029
-168,991
-205,118
-234,062
-255,424
-268,705
-273,948
-271,685
-262,897
-249,232
-232,577
-214,28
-195,757
-178,602
-164,045
-153,126
-146,364
-143,416
-143,457
-145,768
-149,444
-153,369
-156,655
-158,381
-157,894
-155,146
-150,42
-144,077
-136,677
-128,896
-121,193
-114,019
-107,714
-102,317
-97,77
-93,948
-90,595
-87,433
-84,324
-81,193
-78,025
-74,889
-71,834
-68,912
-66,217
-63,831
-61,793
-60,089
-58,669
-57,468
-56,438
-55,543
-54,739
-53,967
-53,17
-52,297
-51,315
-50,197
-48,918
-47,444
-45,744
-43,798
-41,599
-39,162
-36,504
-33,644
-30,603
-27,41
-24,1
-20,725
-17,319
-13,906
-10,497
-7,098
-3,716
-0,359
2,969
6,274
9,564
12,846
16,129
19,415
22,715
26,046
29,427
32,881
36,425
40,064
43,802
47,64
51,576
55,607
59,723
63,915
68,173
72,492
76,869
81,301
85,784
90,314
94,884
99,488
104,121
108,777
113,446
118,125
122,81
127,498
132,191
136,889
141,585
146,274
150,946
155,588
160,182
164,703
169,125
173,429
177,598
181,623
185,502
189,231
192,806
196,227
199,486
202,576
205,492
208,224
210,763
213,112
215,277
217,28
219,146
220,883
222,488
223,951
225,238
226,313
227,13
227,63
227,769
227,512
226,826
225,696
224,104
222,029
219,449
216,33
212,623
208,3
203,343
197,743
191,524
184,724
177,398
169,622
161,449
152,921
144,075
134,925
125,477
115,737
105,692
95,352
84,753
73,93
62,93
51,797
40,549
29,2
17,755
6,211
-5,409
-17,068
-28,723
-40,3
-51,708
-62,834
-73,534
-83,687
-93,21
-102,034
-110,119
-117,43
-123,919
-129,553
-134,307
-138,161
-141,12
-143,195
-144,403
-144,793
-144,44
-143,447
-141,957
-140,09
-137,937
-135,575
-133,059
-130,441
-127,777
-125,106
-122,452
-119,836
-117,276
-114,788
-112,393
-110,091
-107,868
-105,688
-103,495
-101,249
-98,929
-96,52
-94,018
-91,423
-88,733
-85,959
-83,125
-80,248
-77,343
-74,423
-71,491
-68,559
-65,645
-62,771
-59,964
-57,242
-54,616
-52,095
-49,683
-47,38
-45,187
-43,096
-41,095
-39,173
-37,324
-35,54
-33,819
-32,155
-30,541
-28,97
-27,435
-25,931
-24,454
-23
-21,564
-20,144
-18,74
-17,349
-15,976
-14,619
-13,281
-11,962
-10,664
-9,389
-8,138
-6,914
-5,718
-4,555
-3,427
-2,338
-1,293
-0,294
0,652
1,543
2,373
3,14
3,838
4,467
5,021
5,501
5,903
6,227
6,473
6,639
6,727
6,738
6,672
6,532
6,32
6,039
5,693
5,286
4,821
4,303
3,737
3,127
2,479
1,796
1,083
0,346
-0,411
-1,184
-1,968
-2,758
-3,551
-4,341
-5,127
-5,904
-6,67
-7,424
-8,163
-8,888
-9,597
-10,29
-10,97
-11,636
-12,291
-12,936
-13,575
-14,21
-14,846
-15,486
-16,135
-16,797
-17,476
-18,177
-18,905
-19,664
-20,457
-21,29
-22,166
-23,087
-24,057
-25,079
-26,156
-27,288
-28,477
-29,725
-31,031
-32,395
-33,817
-35,294
-36,824
-38,405
-40,033
-41,704
-43,413
-45,156
-46,927
-48,719
-50,526
-52,342
-54,16
-55,97
-57,767
-59,541
-61,286
-62,993
-64,656
-66,265
-67,816
-69,3
-70,712
-72,045
-73,294
-74,454
-75,521
-76,489
-77,356
-78,118
-78,773
-79,32
-79,756
-80,082
-80,297
-80,401
-80,396
-80,283
-80,064
-79,742
-79,318
-78,797
-78,182
-77,477
-76,686
-75,814
-74,865
-73,845
-72,758
-71,61
-70,405
-69,147
-67,842
-66,493
-65,105
-63,683
-62,229
-60,748
-59,242
-57,715
-56,169
-54,608
-53,032
-51,444
-49,846
-48,24
-46,625
-45,005
-43,379
-41,75
-40,117
-38,481
-36,844
-35,206
-33,567
-31,929
-30,292
-28,656
-27,022
-25,391
-23,765
-22,142
-20,526
-18,916
-17,315
-15,723
-14,143
-12,575
-11,023
-9,487
-7,97
-6,474
-5,001
-3,554
-2,136
-0,748
0,607
1,926
3,207
4,449
5,649
6,805
7,916
8,981
9,999
10,968
11,888
12,759
13,58
14,352
15,074
15,746
16,37
16,946
17,475
17,957
18,393
18,785
19,133
19,439
19,704
19,928
20,114
20,262
20,375
20,452
20,496
20,507
20,487
20,436
20,355
20,244
20,104
19,934
19,735
19,506
19,246
18,954
18,63
18,272
17,879
17,449
16,982
16,475
15,928
15,338
14,706
14,031
13,311
12,547
11,738
10,884
9,987
9,046
8,062
7,037
5,972
4,868
3,728
2,553
1,347
0,113
-1,147
-2,429
-3,729
-5,042
-6,365
-7,692
-9,019
-10,34
-11,65
-12,943
-14,215
-15,458
-16,668
-17,84
-18,969
-20,05
-21,078
-22,05
-22,962
-23,812
-24,597
-25,315
-25,964
-26,544
-27,053
-27,492
-27,861
-28,16
-28,39
-28,554
-28,653
-28,689
-28,665
-28,585
-28,452
-28,27
-28,043
-27,776
-27,474
-27,142
-26,786
-26,412
-26,024
-25,63
-25,235
-24,845
-24,466
-24,102
-23,758
-23,44
-23,151
-22,896
-22,677
-22,498
-22,361
-22,268
-22,22
-22,221
-22,269
-22,367
-22,514
-22,71
-22,956
-23,25
-23,591
-23,979
-24,412
-24,887
-25,403
-25,957
-26,545
-27,165
-27,812
-28,482
-29,172
-29,875
-30,589
-31,306
-32,023
-32,734
-33,434
-34,118
-34,779
-35,414
-36,017
-36,583
-37,107
-37,585
-38,012
-38,383
-38,694
-38,94
-39,116
-39,218
-39,242
-39,181
-39,032
-38,79
-38,451
-38,01
-37,464
-36,809
-36,04
-35,157
-34,155
-33,033
-31,789
-30,421
-28,929
-27,312
-25,572
-23,707
-21,721
-19,616
-17,393
-15,056
-12,609
-10,055
-7,401
-4,65
-1,808
1,118
4,121
7,193
10,327
13,512
16,737
19,992
23,262
26,534
29,794
33,029
36,221
39,358
42,424
45,407
48,293
51,069
53,722
56,238
58,601
60,801
62,824
64,659
66,296
67,725
68,939
69,937
70,715
71,271
71,6
71,689
71,531
71,12
70,457
69,544
68,391
67,009
65,417
63,65
61,743
59,731
57,647
55,516
53,364
51,225
49,142
47,17
45,362
43,754
42,382
41,271
40,43
39,857
39,526
39,381
39,369
39,43
39,498
39,517
39,421
39,131
38,573
37,632
36,157
34,082
31,419
28,282
24,925
21,583
18,439
15,772
13,945
13,199
13,55
14,679
15,915
16,719
16,889
16,351
15,012
12,895
10,434
8,733
9,565
14,677
25,276
42,143
65,943
97,265
136,172
181,829
232,43
285,69
339,412
391,603
440,25
483,19
518,553
545,015
561,808
568,732
566,075
554,282
533,942
505,87
470,7
429,12
382,36
331,837
278,645
223,961
169,13
115,646
65,846
22,147
-14,125
-42,331
-61,993
-73,123
-75,974
-71,117
-60,593
-47,061
-32,479
-18,431
-6,073
3,997
11,013
14,197
13,973
11,441
7,594
3,52
-0,235
-3,638
-6,323
-7,745
-7,889
-7,09
-5,901
-5,151
-5,235
-6,126
-7,891
-10,632
-14,336
-18,916
-24,083
-29,321
-34,271
-38,784
-42,766
-46,194
-49,041
-51,227
-52,724
-53,582
-53,855
-53,586
-52,807
-51,517
-49,726
-47,49
-44,886
-42,006
-38,947
-35,768
-32,501
-29,177
-25,817
-22,448
-19,099
-15,779
-12,482
-9,204
-5,945
-2,711
0,494
3,679
6,867
10,085
13,363
16,718
20,157
23,686
27,313
31,041
34,873
38,806
42,832
46,946
51,149
55,44
59,82
64,287
68,835
73,457
78,147
82,901
87,713
92,578
97,49
102,442
107,432
112,456
117,508
122,586
127,682
132,791
137,904
143,015
148,116
153,2
158,259
163,285
168,271
173,21
178,096
182,921
187,681
192,367
196,973
201,494
205,923
210,251
214,473
218,581
222,568
226,425
230,143
233,715
237,13
240,382
243,46
246,357
249,064
251,572
253,875
255,965
257,833
259,471
260,871
262,024
262,922
263,556
263,917
263,996
263,783
263,27
262,45
261,313
259,852
258,055
255,912
253,414
250,56
247,347
243,777
239,855
235,589
230,994
226,088
220,889
215,413
209,674
203,682
197,455
191,007
184,355
177,516
170,504
163,321
155,971
148,451
140,751
132,859
124,757
116,417
107,828
98,988
89,902
80,589
71,065
61,351
51,483
41,499
31,445
21,384
11,382
1,515
-8,118
-17,425
-26,31
-34,666
-42,413
-49,487
-55,832
-61,414
-66,204
-70,184
-73,358
-75,738
-77,343
-78,215
-78,402
-77,968
-77,005
-75,602
-73,842
-71,822
-69,614
-67,28
-64,882
-62,464
-60,059
-57,7
-55,407
-53,191
-51,068
-49,042
-47,108
-45,255
-43,451
-41,672
-39,904
-38,125
-36,329
-34,515
-32,678
-30,828
-28,98
-27,148
-25,347
-23,594
-21,902
-20,284
-18,757
-17,34
-16,057
-14,924
-13,955
-13,157
-12,536
-12,093
-11,827
-11,733
-11,8
-12,017
-12,372
-12,856
-13,457
-14,165
-14,965
-15,844
-16,786
-17,779
-18,808
-19,862
-20,927
-21,992
-23,047
-24,08
-25,086
-26,054
-26,978
-27,849
-28,662
-29,409
-30,085
-30,688
-31,212
-31,655
-32,016
-32,293
-32,487
-32,598
-32,628
-32,579
-32,454
-32,255
-31,987
-31,655
-31,264
-30,819
-30,328
-29,796
-29,231
-28,64
-28,029
-27,407
-26,779
-26,153
-25,535
-24,932
-24,349
-23,791
-23,263
-22,769
-22,31
-21,89
-21,509
-21,168
-20,866
-20,602
-20,375
-20,182
-20,021
-19,887
-19,777
-19,686
-19,611
-19,545
-19,483
-19,419
-19,346
-19,258
-19,147
-19,008
-18,832
-18,613
-18,343
-18,015
-17,623
-17,161
-16,622
-16,001
-15,293
-14,496
-13,605
-12,621
-11,541
-10,367
-9,1
-7,744
-6,303
-4,782
-3,187
-1,526
0,194
1,963
3,772
5,611
7,467
9,329
11,185
13,021
14,824
16,58
18,273
19,889
21,414
22,832
24,127
25,284
26,288
27,124
27,778
28,235
28,482
28,507
28,297
27,843
27,135
26,166
24,929
23,418
21,63
19,562
17,214
14,585
11,677
8,494
5,038
1,315
-2,668
-6,904
-11,384
-16,098
-21,036
-26,185
-31,534
-37,069
-42,776
-48,639
-54,644
-60,774
-67,013
-73,344
-79,749
-86,211
-92,713
-99,237
-105,767
-112,287
-118,779
-125,23
-131,623
-137,946
-144,185
-150,327
-156,361
-162,276
-168,062
-173,709
-179,211
-184,558
-189,745
-194,764
-199,612
-204,284
-208,775
-213,082
-217,204
-221,137
-224,882
-228,437
-231,802
-234,978
-237,966
-240,767
-243,383
-245,816
-248,068
-250,142
-252,04
-253,764
-255,318
-256,703
-257,921
-258,976
-259,868
-260,599
-261,172
-261,588
-261,847
-261,951
-261,9
-261,697
-261,34
-260,831
-260,17
-259,359
-258,398
-257,287
-256,028
-254,62
-253,066
-251,365
-249,519
-247,528
-245,395
-243,119
-240,704
-238,151
-235,462
-232,64
-229,688
-226,609
-223,406
-220,085
-216,648
-213,1
-209,448
-205,695
-201,847
-197,912
-193,894
-189,8
-185,637
-181,412
-177,132
-172,803
-168,432
-164,027
-159,594
-155,14
-150,673
-146,198
-141,723
-137,255
-132,8
-128,364
-123,954
-119,576
-115,236
-110,937
-106,686
-102,487
-98,344
-94,262
-90,242
-86,29
-82,407
-78,596
-74,86
-71,2
-67,618
-64,115
-60,693
-57,351
-54,092
-50,916
-47,824
-44,816
-41,893
-39,056
-36,306
-33,642
-31,064
-28,574
-26,171
-23,856
-21,628
-19,488
-17,437
-15,474
-13,6
-11,816
-10,123
-8,522
-7,014
-5,599
-4,28
-3,058
-1,934
-0,909
0,013
0,832
1,545
2,152
2,65
3,038
3,315
3,48
3,532
3,471
3,296
3,006
2,602
2,084
1,45
0,701
-0,162
-1,139
-2,229
-3,431
-4,742
-6,162
-7,688
-9,317
-11,048
-12,876
-14,799
-16,813
-18,914
-21,096
-23,356
-25,687
-28,084
-30,541
-33,052
-35,61
-38,209
-40,843
-43,506
-46,19
-48,888
-51,593
-54,299
-56,996
-59,677
-62,332
-64,952
-67,528
-70,053
-72,517
-74,912
-77,231
-79,466
-81,612
-83,662
-85,609
-87,445
-89,163
-90,753
-92,211
-93,526
-94,693
-95,704
-96,553
-97,236
-97,752
-98,099
-98,273
-98,269
-98,081
-97,706
-97,144
-96,398
-95,469
-94,366
-93,096
-91,679
-90,137
-88,491
-86,753
-84,93
-83,023
-81,034
-78,968
-76,827
-74,613
-72,326
-69,964
-67,529
-65,031
-62,465
-59,824
-57,085
-54,212
-51,187
-48,011
-44,692
-41,254
-37,726
-34,141
-30,544
-26,993
-23,537
-20,223
-17,087
-14,151
-11,453
-9,042
-6,976
-5,332
-4,162
-3,493
-3,347
-3,725
-4,612
-5,983
-7,79
-9,962
-12,448
-15,206
-18,2
-21,411
-24,802
-28,323
-31,914
-35,498
-39,002
-42,365
-45,527
-48,44
-51,077
-53,417
-55,46
-57,219
-58,682
-59,829
-60,641
-61,089
-61,156
-60,847
-60,18
-59,199
-57,975
-56,578
-55,07
-53,517
-51,976
-50,505
-49,17
-48,04
-47,181
-46,69
-46,694
-47,242
-48,292
-49,704
-51,189
-52,444
-53,234
-53,238
-52,066
-49,611
-46,01
-41,672
-37,383
-33,71
-30,837
-29,03
-28,546
-29,089
-29,935
-29,727
-26,411
-18,404
-4,759
15,487
43,138
78,391
120,877
169,188
220,836
273,513
325,181
373,677
416,869
452,693
479,29
495,576
501,355
496,736
482,068
457,786
424,332
382,647
334,122
280,332
222,934
163,378
102,931
43,417
-12,68
-63,014
-105,609
-139,165
-163,262
-177,582
-181,759
-176,466
-163,657
-145,854
-125,911
-106,304
-88,462
-73,624
-63,229
-57,894
-57,218
-60,157
-64,928
-69,781
-73,857
-76,518
-76,964
-74,831
-70,158
-63,311
-55,284
-47,161
-39,47
-32,556
-26,729
-22,066
-18,605
-16,298
-14,785
-13,655
-12,696
-11,772
-10,84
-9,944
-9,08
-8,247
-7,503
-6,904
-6,484
-6,239
-6,13
-6,107
-6,142
-6,206
-6,277
-6,323
-6,297
-6,172
-5,924
-5,525
-4,96
-4,204
-3,233
-2,039
-0,618
1,025
2,873
4,917
7,146
9,54
12,073
14,714
17,42
20,164
22,931
25,706
28,485
31,259
34,023
36,78
39,54
42,313
45,106
47,929
50,787
53,691
56,66
59,713
62,873
66,155
69,568
73,12
76,813
80,648
84,623
88,734
92,97
97,326
101,797
106,38
111,073
115,874
120,778
125,778
130,87
136,049
141,309
146,643
152,046
157,515
163,049
168,642
174,289
179,978
185,696
191,43
197,161
202,868
208,524
214,105
219,587
224,952
230,185
235,268
240,188
244,928
249,468
253,8
257,921
261,831
265,537
269,047
272,369
275,525
278,54
281,433
284,212
286,876
289,417
291,826
294,088
296,182
298,09
299,78
301,214
302,352
303,138
303,513
303,417
302,773
301,503
299,542
296,836
293,344
289,043
283,913
277,95
271,168
263,579
255,211
246,093
236,255
225,757
214,677
203,095
191,112
178,836
166,367
153,812
141,279
128,853
116,614
104,63
92,945
81,612
70,683
60,21
50,255
40,847
31,994
23,706
15,975
8,782
2,108
-4,089
-9,865
-15,255
-20,287
-24,979
-29,332
-33,36
-37,085
-40,53
-43,729
-46,7
-49,447
-51,981
-54,309
-56,428
-58,331
-59,995
-61,379
-62,464
-63,242
-63,71
-63,882
-63,763
-63,355
-62,667
-61,706
-60,483
-59,014
-57,314
-55,395
-53,279
-50,992
-48,568
-46,05
-43,474
-40,868
-38,256
-35,66
-33,098
-30,591
-28,153
-25,797
-23,532
-21,371
-19,325
-17,406
-15,622
-13,977
-12,474
-11,113
-9,892
-8,811
-7,869
-7,065
-6,396
-5,859
-5,452
-5,173
-5,018
-4,982
-5,058
-5,238
-5,512
-5,872
-6,308
-6,809
-7,364
-7,963
-8,595
-9,25
-9,919
-10,59
-11,255
-11,905
-12,53
-13,124
-13,678
-14,186
-14,641
-15,04
-15,377
-15,649
-15,854
-15,989
-16,053
-16,044
-15,964
-15,812
-15,589
-15,297
-14,938
-14,515
-14,033
-13,496
-12,909
-12,278
-11,608
-10,907
-10,181
-9,437
-8,683
-7,924
-7,168
-6,423
-5,694
-4,988
-4,312
-3,67
-3,069
-2,513
-2,006
-1,553
-1,155
-0,817
-0,54
-0,326
-0,176
-0,091
-0,072
-0,119
-0,23
-0,407
-0,646
-0,946
-1,305
-1,72
-2,189
-2,707
-3,272
-3,879
-4,525
-5,205
-5,914
-6,649
-7,405
-8,178
-8,962
-9,755
-10,552
-11,349
-12,143
-12,932
-13,713
-14,482
-15,24
-15,984
-16,712
-17,424
-18,12
-18,799
-19,46
-20,105
-20,733
-21,345
-21,941
-22,523
-23,092
-23,649
-24,195
-24,732
-25,261
-25,784
-26,303
-26,819
-27,333
-27,849
-28,368
-28,89
-29,419
-29,955
-30,5
-31,055
-31,62
-32,195
-32,782
-33,379
-33,986
-34,604
-35,23
-35,863
-36,503
-37,147
-37,794
-38,443
-39,09
-39,735
-40,374
-41,007
-41,63
-42,242
-42,842
-43,426
-43,994
-44,543
-45,072
-45,578
-46,06
-46,516
-46,944
-47,343
-47,71
-48,045
-48,347
-48,614
-48,845
-49,04
-49,198
-49,319
-49,404
-49,451
-49,462
-49,436
-49,376
-49,281
-49,152
-48,991
-48,799
-48,577
-48,325
-48,045
-47,739
-47,406
-47,047
-46,664
-46,257
-45,827
-45,374
-44,9
-44,405
-43,891
-43,357
-42,804
-42,234
-41,646
-41,043
-40,424
-39,79
-39,142
-38,48
-37,805
-37,118
-36,42
-35,71
-34,989
-34,258
-33,518
-32,768
-32,01
-31,245
-30,472
-29,694
-28,911
-28,124
-27,335
-26,546
-25,758
-24,974
-24,194
-23,421
-22,657
-21,903
-21,162
-20,436
-19,726
-19,035
-18,364
-17,716
-17,092
-16,493
-15,922
-15,38
-14,869
-14,39
-13,944
-13,532
-13,155
-12,815
-12,512
-12,246
-12,019
-11,831
-11,681
-11,569
-11,496
-11,46
-11,46
-11,497
-11,567
-11,67
-11,805
-11,97
-12,163
-12,382
-12,627
-12,894
-13,182
-13,489
-13,813
-14,153
-14,505
-14,87
-15,244
-15,626
-16,015
-16,409
-16,807
-17,207
-17,608
-18,01
-18,411
-18,81
-19,206
-19,599
-19,988
-20,373
-20,754
-21,13
-21,503
-21,871
-22,237
-22,601
-22,962
-23,323
-23,683
-24,043
-24,405
-24,769
-25,136
-25,507
-25,883
-26,264
-26,651
-27,047
-27,451
-27,864
-28,287
-28,721
-29,166
-29,622
-30,091
-30,571
-31,064
-31,569
-32,087
-32,617
-33,16
-33,716
-34,285
-34,865
-35,457
-36,059
-36,672
-37,292
-37,92
-38,554
-39,193
-39,835
-40,48
-41,125
-41,771
-42,413
-43,052
-43,684
-44,306
-44,917
-45,512
-46,089
-46,645
-47,174
-47,676
-48,147
-48,585
-48,987
-49,351
-49,675
-49,957
-50,194
-50,382
-50,518
-50,596
-50,612
-50,561
-50,439
-50,244
-49,973
-49,624
-49,194
-48,684
-48,093
-47,419
-46,659
-45,806
-44,857
-43,814
-42,681
-41,465
-40,18
-38,836
-37,445
-36,025
-34,586
-33,135
-31,675
-30,197
-28,693
-27,162
-25,609
-24,047
-22,491
-20,943
-19,405
-17,878
-16,351
-14,819
-13,27
-11,683
-10,043
-8,356
-6,64
-4,936
-3,294
-1,749
-0,329
0,946
2,065
3,003
3,735
4,245
4,505
4,492
4,178
3,51
2,451
0,985
-0,885
-3,121
-5,667
-8,482
-11,528
-14,762
-18,15
-21,636
-25,169
-28,708
-32,212
-35,638
-38,936
-42,03
-44,845
-47,324
-49,424
-51,138
-52,472
-53,432
-54,034
-54,308
-54,298
-54,069
-53,673
-53,158
-52,577
-51,988
-51,47
-51,115
-51,012
-51,261
-51,994
-53,256
-55,006
-57,114
-59,313
-61,338
-62,991
-64,005
-64,042
-62,938
-60,781
-57,926
-55,062
-52,803
-51,413
-51,101
-52,123
-54,414
-57,427
-60,042
-60,485
-56,953
-48,228
-33,355
-11,387
18,2
55,259
98,804
146,758
196,505
245,706
292,171
333,58
367,737
392,753
407,267
410,886
404,072
387,482
361,733
327,54
285,898
238,166
186,032
131,17
74,826
18,132
-37,281
-89,256
-135,594
-174,402
-204,482
-225,308
-236,434
-237,555
-229,281
-213,218
-191,665
-167,238
-142,205
-118,345
-97,262
-80,39
-68,479
-61,506
-58,697
-58,76
-60,421
-62,51
-64,083
-64,388
-62,968
-59,778
-55,163
-49,754
-44,266
-39,435
-35,742
-33,464
-32,761
-33,574
-35,713
-38,897
-42,733
-46,8
-50,81
-54,569
-57,911
-60,746
-63,002
-64,621
-65,621
-66,045
-65,916
-65,257
-64,086
-62,428
-60,333
-57,87
-55,099
-52,077
-48,854
-45,485
-42,036
-38,584
-35,179
-31,858
-28,64
-25,533
-22,551
-19,698
-16,969
-14,345
-11,806
-9,333
-6,908
-4,52
-2,153
0,21
2,593
5,017
7,5
10,05
12,675
15,38
18,168
21,044
24,005
27,046
30,163
33,353
36,614
39,947
43,348
46,813
50,338
53,919
57,554
61,243
64,985
68,779
72,626
76,527
80,481
84,49
88,553
92,666
96,826
101,029
105,272
109,554
113,875
118,236
122,631
127,054
131,495
135,941
140,374
144,776
149,124
153,403
157,601
161,71
165,731
169,667
173,519
177,283
180,948
184,503
187,939
191,25
194,433
197,494
200,444
203,299
206,083
208,805
211,465
214,046
216,512
218,82
220,919
222,766
224,329
225,581
226,494
227,045
227,204
226,939
226,209
224,967
223,156
220,734
217,676
213,98
209,669
204,782
199,376
193,503
187,204
180,519
173,48
166,12
158,47
150,567
142,453
134,178
125,807
117,397
108,997
100,637
92,333
84,084
75,881
67,714
59,582
51,488
43,444
35,466
27,574
19,786
12,125
4,605
-2,769
-9,991
-17,054
-23,943
-30,639
-37,116
-43,343
-49,294
-54,943
-60,27
-65,26
-69,903
-74,195
-78,134
-81,724
-84,966
-87,861
-90,411
-92,616
-94,48
-96,011
-97,217
-98,11
-98,7
-99,003
-99,032
-98,802
-98,325
-97,617
-96,691
-95,558
-94,233
-92,73
-91,064
-89,25
-87,303
-85,241
-83,077
-80,829
-78,511
-76,137
-73,722
-71,278
-68,818
-66,352
-63,892
-61,449
-59,031
-56,649
-54,309
-52,021
-49,791
-47,627
-45,533
-43,515
-41,579
-39,727
-37,963
-36,29
-34,708
-33,22
-31,826
-30,527
-29,32
-28,207
-27,184
-26,25
-25,403
-24,64
-23,957
-23,35
-22,818
-22,355
-21,958
-21,623
-21,347
-21,126
-20,956
-20,834
-20,757
-20,72
-20,721
-20,755
-20,818
-20,908
-21,02
-21,151
-21,299
-21,46
-21,631
-21,809
-21,993
-22,181
-22,372
-22,563
-22,755
-22,947
-23,139
-23,331
-23,524
-23,718
-23,914
-24,113
-24,316
-24,524
-24,738
-24,96
-25,191
-25,432
-25,683
-25,947
-26,223
-26,515
-26,821
-27,145
-27,486
-27,847
-28,227
-28,629
-29,054
-29,501
-29,972
-30,467
-30,986
-31,528
-32,092
-32,678
-33,284
-33,908
-34,546
-35,198
-35,859
-36,527
-37,198
-37,869
-38,536
-39,196
-39,844
-40,477
-41,091
-41,682
-42,248
-42,783
-43,286
-43,752
-44,179
-44,564
-44,903
-45,193
-45,433
-45,619
-45,75
-45,823
-45,837
-45,791
-45,683
-45,513
-45,282
-44,991
-44,64
-44,231
-43,766
-43,248
-42,68
-42,064
-41,405
-40,705
-39,97
-39,203
-38,408
-37,59
-36,754
-35,903
-35,043
-34,176
-33,307
-32,441
-31,58
-30,728
-29,889
-29,066
-28,261
-27,479
-26,72
-25,988
-25,285
-24,611
-23,969
-23,358
-22,78
-22,232
-21,716
-21,229
-20,771
-20,34
-19,933
-19,548
-19,182
-18,833
-18,497
-18,171
-17,851
-17,533
-17,215
-16,892
-16,561
-16,219
-15,862
-15,487
-15,093
-14,675
-14,231
-13,76
-13,258
-12,723
-12,155
-11,55
-10,909
-10,23
-9,513
-8,758
-7,965
-7,135
-6,268
-5,366
-4,431
-3,462
-2,464
-1,436
-0,382
0,696
1,794
2,911
4,043
5,187
6,339
7,497
8,657
9,816
10,972
12,121
13,262
14,39
15,504
16,6
17,676
18,729
19,757
20,757
21,728
22,669
23,577
24,453
25,295
26,102
26,875
27,612
28,314
28,978
29,606
30,196
30,75
31,267
31,748
32,193
32,605
32,984
33,331
33,646
33,931
34,185
34,411
34,609
34,778
34,921
35,037
35,129
35,197
35,241
35,263
35,263
35,24
35,195
35,125
35,029
34,906
34,754
34,573
34,361
34,119
33,845
33,54
33,204
32,837
32,438
32,005
31,535
31,024
30,47
29,868
29,215
28,507
27,742
26,918
26,038
25,101
24,108
23,056
21,938
20,754
19,506
18,195
16,824
15,4
13,931
12,433
10,932
9,447
7,986
6,556
5,154
3,778
2,431
1,11
-0,186
-1,463
-2,727
-3,979
-5,212
-6,429
-7,645
-8,889
-10,211
-11,644
-13,201
-14,891
-16,711
-18,657
-20,722
-22,876
-25,076
-27,28
-29,453
-31,575
-33,639
-35,618
-37,47
-39,129
-40,509
-41,547
-42,191
-42,391
-42,104
-41,295
-39,949
-38,096
-35,796
-33,104
-30,067
-26,714
-23,075
-19,203
-15,17
-11,063
-6,99
-3,045
0,668
4,028
6,918
9,23
10,888
11,863
12,157
11,77
10,699
8,943
6,505
3,416
-0,287
-4,563
-9,357
-14,605
-20,215
-26,071
-32,052
-38,046
-43,952
-49,695
-55,217
-60,461
-65,379
-69,939
-74,111
-77,872
-81,195
-84,044
-86,4
-88,264
-89,66
-90,626
-91,211
-91,483
-91,517
-91,404
-91,221
-91,011
-90,817
-90,681
-90,649
-90,796
-91,204
-91,927
-93,037
-94,6
-96,592
-98,939
-101,47
-103,877
-105,881
-107,232
-107,617
-106,824
-104,861
-101,918
-98,422
-94,908
-91,67
-88,882
-86,794
-85,516
-84,757
-83,725
-81,116
-75,601
-66,322
-52,712
-34,095
-9,815
20,315
55,616
94,388
134,643
174,712
213,165
248,317
278,064
300,289
313,472
317,287
311,991
297,826
274,891
243,421
204,377
159,478
110,795
59,858
7,848
-43,965
-93,921
-139,813
-179,634
-212,102
-236,786
-253,408
-261,64
-261,392
-253,1
-238,199
-218,731
-196,742
-173,728
-151,005
-130,008
-111,989
-97,974
-88,293
-82,47
-79,661
-79,162
-80,224
-81,914
-83,469
-84,136
-83,442
-81,448
-78,466
-74,818
-70,957
-67,441
-64,618
-62,794
-62,131
-62,51
-63,739
-65,588
-67,728
-69,791
-71,528
-72,746
-73,335
-73,307
-72,664
-71,424
-69,643
-67,386
-64,716
-61,692
-58,361
-54,755
-50,928
-46,947
-42,882
-38,814
-34,806
-30,907
-27,152
-23,565
-20,161
-16,95
-13,931
-11,096
-8,437
-5,938
-3,588
-1,375
0,72
2,718
4,644
6,529
8,398
10,267
12,15
14,058
15,998
17,978
20,004
22,075
24,195
26,366
28,594
30,887
33,25
35,686
38,2
40,793
43,47
46,235
49,094
52,049
55,107
58,27
61,543
64,932
68,44
72,069
75,818
79,689
83,68
87,789
92,014
96,351
100,796
105,344
109,99
114,729
119,553
124,456
129,429
134,463
139,548
144,674
149,829
155,001
160,177
165,344
170,487
175,592
180,643
185,625
190,52
195,312
199,983
204,516
208,893
213,096
217,107
220,908
224,483
227,813
230,883
233,677
236,178
238,372
240,244
241,782
242,971
243,801
244,261
244,341
244,033
243,329
242,225
240,715
238,796
236,469
233,732
230,589
227,043
223,098
218,763
214,047
208,959
203,513
197,721
191,601
185,168
178,442
171,442
164,189
156,704
149,012
141,135
133,098
124,926
116,646
108,282
99,863
91,414
82,962
74,535
66,159
57,859
49,662
41,593
33,676
25,934
18,391
11,068
3,985
-2,839
-9,386
-15,64
-21,587
-27,214
-32,509
-37,464
-42,071
-46,324
-50,219
-53,753
-56,925
-59,736
-62,188
-64,284
-66,03
-67,432
-68,498
-69,237
-69,659
-69,777
-69,602
-69,148
-68,43
-67,462
-66,261
-64,842
-63,224
-61,422
-59,455
-57,34
-55,094
-52,735
-50,28
-47,746
-45,149
-42,506
-39,831
-37,14
-34,446
-31,762
-29,103
-26,478
-23,9
-21,38
-18,926
-16,548
-14,254
-12,051
-9,947
-7,946
-6,054
-4,274
-2,611
-1,066
0,359
1,663
2,845
3,906
4,847
5,67
6,376
6,968
7,448
7,822
8,091
8,26
8,333
8,314
8,207
8,017
7,748
7,405
6,991
6,513
5,974
5,38
4,734
4,043
3,31
2,541
1,74
0,911
0,06
-0,809
-1,694
-2,589
-3,491
-4,398
-5,304
-6,209
-7,109
-8
-8,882
-9,752
-10,608
-11,449
-12,272
-13,077
-13,863
-14,627
-15,37
-16,09
-16,786
-17,458
-18,106
-18,729
-19,326
-19,899
-20,447
-20,972
-21,473
-21,953
-22,411
-22,849
-23,269
-23,67
-24,056
-24,426
-24,782
-25,125
-25,457
-25,779
-26,092
-26,397
-26,695
-26,988
-27,277
-27,562
-27,844
-28,125
-28,405
-28,686
-28,967
-29,251
-29,538
-29,829
-30,125
-30,427
-30,735
-31,05
-31,372
-31,701
-32,038
-32,382
-32,733
-33,092
-33,458
-33,831
-34,212
-34,6
-34,994
-35,396
-35,804
-36,219
-36,641
-37,069
-37,504
-37,945
-38,392
-38,846
-39,306
-39,773
-40,247
-40,727
-41,213
-41,705
-42,201
-42,703
-43,208
-43,717
-44,229
-44,742
-45,258
-45,775
-46,292
-46,808
-47,324
-47,838
-48,349
-48,855
-49,356
-49,85
-50,337
-50,814
-51,28
-51,735
-52,175
-52,6
-53,008
-53,397
-53,764
-54,108
-54,426
-54,717
-54,978
-55,208
-55,405
-55,567
-55,693
-55,782
-55,832
-55,842
-55,811
-55,739
-55,624
-55,466
-55,264
-55,018
-54,728
-54,395
-54,019
-53,601
-53,142
-52,642
-52,104
-51,528
-50,916
-50,27
-49,592
-48,884
-48,148
-47,388
-46,607
-45,807
-44,993
-44,167
-43,333
-42,494
-41,654
-40,815
-39,982
-39,158
-38,345
-37,548
-36,769
-36,011
-35,278
-34,572
-33,895
-33,251
-32,64
-32,065
-31,527
-31,027
-30,567
-30,148
-29,771
-29,435
-29,142
-28,892
-28,685
-28,519
-28,396
-28,314
-28,271
-28,266
-28,298
-28,366
-28,467
-28,599
-28,762
-28,952
-29,168
-29,408
-29,669
-29,949
-30,246
-30,558
-30,883
-31,218
-31,561
-31,911
-32,267
-32,627
-32,989
-33,353
-33,717
-34,081
-34,443
-34,803
-35,16
-35,513
-35,863
-36,208
-36,55
-36,887
-37,22
-37,55
-37,876
-38,199
-38,519
-38,837
-39,153
-39,468
-39,781
-40,095
-40,409
-40,723
-41,04
-41,359
-41,68
-42,005
-42,334
-42,666
-43,002
-43,342
-43,686
-44,034
-44,385
-44,739
-45,096
-45,455
-45,816
-46,179
-46,542
-46,906
-47,269
-47,63
-47,99
-48,348
-48,702
-49,052
-49,398
-49,739
-50,074
-50,404
-50,727
-51,043
-51,352
-51,654
-51,947
-52,232
-52,508
-52,776
-53,034
-53,284
-53,524
-53,756
-53,979
-54,193
-54,399
-54,597
-54,786
-54,968
-55,141
-55,307
-55,466
-55,617
-55,76
-55,896
-56,024
-56,143
-56,254
-56,356
-56,449
-56,53
-56,6
-56,657
-56,699
-56,726
-56,735
-56,724
-56,693
-56,64
-56,561
-56,456
-56,322
-56,158
-55,961
-55,729
-55,461
-55,154
-54,806
-54,417
-53,985
-53,508
-52,986
-52,418
-51,804
-51,143
-50,436
-49,685
-48,888
-48,049
-47,169
-46,25
-45,297
-44,311
-43,298
-42,262
-41,21
-40,15
-39,089
-38,035
-36,996
-35,983
-35,003
-34,067
-33,182
-32,355
-31,595
-30,91
-30,309
-29,803
-29,4
-29,109
-28,94
-28,898
-28,993
-29,228
-29,606
-30,127
-30,792
-31,604
-32,574
-33,707
-35,009
-36,478
-38,113
-39,907
-41,846
-43,911
-46,071
-48,293
-50,547
-52,805
-55,05
-57,258
-59,406
-61,46
-63,375
-65,113
-66,641
-67,933
-68,97
-69,746
-70,274
-70,592
-70,764
-70,853
-70,907
-70,972
-71,093
-71,324
-71,733
-72,403
-73,4
-74,816
-76,77
-79,285
-82,296
-85,639
-88,998
-92,077
-94,666
-96,463
-97,119
-96,541
-94,84
-92,438
-90,098
-88,225
-86,87
-86,145
-86,156
-86,719
-87,314
-86,668
-82,915
-74,844
-61,822
-43,314
-18,82
12,161
49,665
92,497
138,483
185,678
232,455
277,28
318,29
352,944
378,896
394,766
400,181
395,214
379,965
354,455
319,446
276,789
228,675
177,328
124,595
71,897
20,845
-26,579
-68,908
-105,295
-135,136
-158,344
-174,932
-184,891
-188,687
-187,288
-181,516
-172,211
-160,533
-147,488
-134,104
-121,257
-109,38
-98,682
-89,519
-82,183
-76,489
-72,008
-68,084
-64,256
-60,451
-56,657
-52,726
-48,412
-43,721
-38,977
-34,756
-31,458
-29,16
-27,839
-27,469
-28,12
-29,797
-32,279
-35,173
-38,137
-40,977
-43,577
-45,865
-47,716
-49,003
-49,676
-49,765
-49,319
-48,376
-46,951
-45,043
-42,686
-39,938
-36,87
-33,55
-30,036
-26,381
-22,649
-18,915
-15,247
-11,691
-8,278
-5,018
-1,919
1,01
3,771
6,371
8,829
11,163
13,392
15,533
17,605
19,63
21,632
23,644
25,689
27,783
29,941
32,17
34,479
36,876
39,363
41,941
44,61
47,372
50,23
53,191
56,258
59,432
62,716
66,109
69,613
73,229
76,958
80,801
84,759
88,831
93,019
97,324
101,745
106,282
110,931
115,688
120,55
125,511
130,567
135,711
140,937
146,238
151,607
157,039
162,525
168,058
173,627
179,222
184,834
190,45
196,056
201,639
207,184
212,675
218,098
223,436
228,674
233,797
238,789
243,636
248,322
252,833
257,152
261,263
265,147
268,789
272,172
275,278
278,091
280,595
282,776
284,621
286,12
287,261
288,033
288,422
288,413
287,998
287,169
285,922
284,256
282,175
279,69
276,816
273,575
269,982
266,049
261,783
257,186
252,261
247,014
241,447
235,572
229,401
222,943
216,213
209,226
201,984
194,487
186,722
178,669
170,327
161,708
152,833
143,744
134,486
125,112
115,691
106,281
96,931
87,694
78,607
69,709
61,052
52,692
44,696
37,147
30,096
23,585
17,642
12,269
7,456
3,179
-0,615
-3,969
-6,916
-9,486
-11,695
-13,56
-15,11
-16,378
-17,402
-18,237
-18,923
-19,49
-19,97
-20,374
-20,7
-20,94
-21,061
-21,038
-20,859
-20,518
-20,019
-19,372
-18,579
-17,648
-16,587
-15,393
-14,071
-12,626
-11,058
-9,38
-7,608
-5,765
-3,881
-1,987
-0,103
1,753
3,567
5,332
7,039
8,681
10,259
11,768
13,206
14,567
15,846
17,039
18,146
19,168
20,107
20,968
21,753
22,465
23,108
23,683
24,193
24,64
25,024
25,347
25,611
25,82
25,978
26,09
26,159
26,191
26,19
26,161
26,108
26,036
25,945
25,841
25,725
25,601
25,469
25,333
25,193
25,053
24,912
24,774
24,638
24,506
24,379
24,256
24,138
24,025
23,916
23,811
23,709
23,608
23,507
23,404
23,298
23,185
23,062
22,926
22,774
22,602
22,406
22,182
21,926
21,634
21,303
20,93
20,512
20,046
19,529
18,96
18,335
17,652
16,911
16,108
15,243
14,314
13,321
12,263
11,139
9,95
8,697
7,379
5,998
4,556
3,054
1,495
-0,117
-1,779
-3,487
-5,237
-7,023
-8,84
-10,681
-12,542
-14,415
-16,295
-18,176
-20,05
-21,911
-23,754
-25,573
-27,361
-29,112
-30,821
-32,481
-34,089
-35,638
-37,124
-38,542
-39,888
-41,158
-42,349
-43,456
-44,478
-45,411
-46,254
-47,005
-47,664
-48,229
-48,703
-49,084
-49,376
-49,58
-49,699
-49,736
-49,695
-49,581
-49,397
-49,148
-48,841
-48,479
-48,068
-47,615
-47,124
-46,602
-46,055
-45,489
-44,909
-44,322
-43,734
-43,149
-42,575
-42,015
-41,477
-40,965
-40,484
-40,039
-39,635
-39,276
-38,965
-38,707
-38,503
-38,358
-38,272
-38,247
-38,285
-38,386
-38,549
-38,775
-39,062
-39,41
-39,817
-40,281
-40,8
-41,37
-41,99
-42,655
-43,363
-44,11
-44,892
-45,704
-46,543
-47,404
-48,283
-49,175
-50,075
-50,98
-51,882
-52,779
-53,665
-54,535
-55,384
-56,208
-57,003
-57,764
-58,487
-59,168
-59,805
-60,394
-60,933
-61,417
-61,847
-62,219
-62,533
-62,787
-62,98
-63,111
-63,182
-63,191
-63,139
-63,028
-62,858
-62,632
-62,349
-62,014
-61,628
-61,193
-60,713
-60,191
-59,631
-59,034
-58,407
-57,752
-57,074
-56,377
-55,665
-54,942
-54,213
-53,482
-52,753
-52,031
-51,318
-50,62
-49,938
-49,278
-48,643
-48,034
-47,456
-46,911
-46,401
-45,928
-45,494
-45,1
-44,748
-44,439
-44,172
-43,948
-43,767
-43,629
-43,532
-43,476
-43,46
-43,482
-43,54
-43,631
-43,755
-43,907
-44,085
-44,286
-44,507
-44,746
-44,998
-45,261
-45,531
-45,806
-46,082
-46,356
-46,626
-46,888
-47,14
-47,379
-47,603
-47,808
-47,995
-48,16
-48,302
-48,42
-48,513
-48,58
-48,621
-48,635
-48,622
-48,584
-48,519
-48,43
-48,316
-48,18
-48,024
-47,848
-47,655
-47,448
-47,228
-46,999
-46,762
-46,52
-46,276
-46,032
-45,791
-45,555
-45,326
-45,108
-44,902
-44,71
-44,536
-44,38
-44,244
-44,131
-44,041
-43,975
-43,934
-43,919
-43,93
-43,968
-44,032
-44,123
-44,24
-44,382
-44,549
-44,74
-44,952
-45,185
-45,436
-45,705
-45,988
-46,284
-46,592
-46,91
-47,237
-47,57
-47,909
-48,251
-48,596
-48,941
-49,286
-49,629
-49,969
-50,304
-50,635
-50,959
-51,278
-51,591
-51,899
-52,2
-52,497
-52,788
-53,075
-53,359
-53,64
-53,919
-54,198
-54,478
-54,761
-55,048
-55,341
-55,64
-55,947
-56,263
-56,586
-56,916
-57,252
-57,593
-57,937
-58,283
-58,63
-58,977
-59,322
-59,666
-60,006
-60,342
-60,671
-60,989
-61,293
-61,577
-61,836
-62,064
-62,256
-62,405
-62,503
-62,547
-62,531
-62,45
-62,296
-62,058
-61,73
-61,307
-60,788
-60,172
-59,462
-58,662
-57,78
-56,832
-55,832
-54,793
-53,726
-52,632
-51,511
-50,366
-49,199
-48,015
-46,814
-45,58
-44,299
-42,958
-41,542
-40,04
-38,43
-36,677
-34,752
-32,64
-30,329
-27,833
-25,173
-22,367
-19,44
-16,425
-13,365
-10,327
-7,385
-4,598
-2,027
0,269
2,226
3,758
4,789
5,268
5,154
4,436
3,113
1,186
-1,337
-4,429
-8,048
-12,13
-16,592
-21,371
-26,401
-31,615
-36,931
-42,24
-47,444
-52,459
-57,222
-61,688
-65,816
-69,567
-72,901
-75,787
-78,211
-80,177
-81,702
-82,797
-83,476
-83,768
-83,737
-83,478
-83,085
-82,641
-82,194
-81,787
-81,481
-81,34
-81,442
-81,872
-82,669
-83,899
-85,644
-87,874
-90,491
-93,298
-95,935
-98,101
-99,578
-100,046
-99,257
-97,199
-93,997
-90,095
-86,092
-82,158
-78,296
-74,567
-70,845
-66,864
-62,023
-55,026
-44,575
-30,078
-11,205
12,186
40,157
72,994
110,366
150,905
193,054
235,484
277,016
316,724
353,184
384,142
407,642
422,401
427,634
423,033
408,195
382,491
346,154
300,583
247,854
190,404
130,361
69,409
9,671
-46,156
-95,563
-136,617
-168,475
-191,168
-204,665
-208,897
-204,368
-192,432
-175,18
-155,07
-133,912
-113,038
-93,949
-78,002
-66,33
-59,466
-56,996
-57,846
-61,084
-65,77
-70,721
-74,992
-77,651
-78,031
-76,143
-72,414
-67,328
-61,546
-55,855
-50,764
-46,728
-44,069
-42,753
-42,631
-43,496
-44,993
-46,757
-48,588
-50,334
-51,905
-53,308
-54,507
-55,467
-56,205
-56,72
-56,981
-56,957
-56,608
-55,904
-54,861
-53,508
-51,874
-49,989
-47,866
-45,515
-42,956
-40,21
-37,299
-34,25
-31,088
-27,853
-24,598
-21,366
-18,186
-15,073
-12,025
-9,039
-6,111
-3,232
-0,39
2,424
5,22
8,004
10,781
13,558
16,349
19,172
22,052
25,009
28,057
31,205
34,461
37,827
41,31
44,909
48,62
52,443
56,377
60,423
64,588
68,872
73,274
77,791
82,419
87,157
92
96,945
101,989
107,128
112,359
117,681
123,094
128,597
134,183
139,846
145,581
151,38
157,237
163,142
169,084
175,052
181,038
187,037
193,043
199,047
205,03
210,972
216,854
222,658
228,364
233,95
239,388
244,657
249,745
254,647
259,362
263,88
268,184
272,251
276,057
279,589
282,839
285,803
288,47
290,832
292,884
294,632
296,092
297,263
298,123
298,635
298,758
298,469
297,752
296,6
295,004
292,952
290,432
287,437
283,978
280,059
275,678
270,823
265,47
259,618
253,29
246,529
239,371
231,848
223,988
215,822
207,391
198,728
189,865
180,82
171,597
162,212
152,687
143,049
133,338
123,593
113,84
104,11
94,45
84,897
75,488
66,253
57,205
48,373
39,791
31,499
23,545
15,973
8,823
2,142
-4,034
-9,692
-14,824
-19,447
-23,599
-27,306
-30,589
-33,469
-35,954
-38,061
-39,817
-41,242
-42,363
-43,21
-43,821
-44,247
-44,537
-44,716
-44,801
-44,787
-44,656
-44,402
-44,024
-43,518
-42,891
-42,151
-41,302
-40,363
-39,351
-38,277
-37,146
-35,955
-34,698
-33,383
-32,022
-30,634
-29,246
-27,877
-26,545
-25,269
-24,063
-22,939
-21,904
-20,958
-20,098
-19,326
-18,641
-18,048
-17,55
-17,147
-16,838
-16,621
-16,491
-16,444
-16,476
-16,58
-16,749
-16,978
-17,264
-17,603
-17,992
-18,43
-18,911
-19,432
-19,99
-20,58
-21,198
-21,838
-22,496
-23,166
-23,845
-24,528
-25,213
-25,895
-26,571
-27,24
-27,898
-28,542
-29,172
-29,784
-30,378
-30,951
-31,503
-32,032
-32,538
-33,021
-33,48
-33,915
-34,327
-34,715
-35,081
-35,423
-35,744
-36,042
-36,32
-36,578
-36,817
-37,038
-37,243
-37,432
-37,607
-37,771
-37,923
-38,067
-38,203
-38,333
-38,459
-38,583
-38,705
-38,828
-38,953
-39,081
-39,214
-39,354
-39,501
-39,657
-39,823
-40
-40,189
-40,392
-40,607
-40,838
-41,083
-41,344
-41,622
-41,916
-42,226
-42,554
-42,899
-43,261
-43,641
-44,039
-44,454
-44,888
-45,339
-45,807
-46,293
-46,797
-47,317
-47,853
-48,406
-48,973
-49,556
-50,153
-50,763
-51,385
-52,019
-52,663
-53,317
-53,979
-54,647
-55,321
-55,999
-56,679
-57,359
-58,039
-58,716
-59,389
-60,056
-60,714
-61,362
-61,998
-62,619
-63,222
-63,806
-64,367
-64,903
-65,412
-65,89
-66,336
-66,746
-67,118
-67,45
-67,739
-67,982
-68,179
-68,326
-68,422
-68,465
-68,455
-68,39
-68,27
-68,094
-67,862
-67,575
-67,232
-66,834
-66,383
-65,879
-65,325
-64,722
-64,072
-63,377
-62,642
-61,868
-61,06
-60,221
-59,354
-58,464
-57,555
-56,632
-55,699
-54,76
-53,82
-52,884
-51,957
-51,043
-50,146
-49,272
-48,424
-47,606
-46,822
-46,074
-45,367
-44,703
-44,083
-43,51
-42,986
-42,512
-42,089
-41,716
-41,394
-41,124
-40,902
-40,73
-40,604
-40,523
-40,485
-40,487
-40,526
-40,599
-40,703
-40,833
-40,986
-41,158
-41,345
-41,542
-41,746
-41,95
-42,152
-42,347
-42,53
-42,698
-42,847
-42,973
-43,073
-43,143
-43,182
-43,185
-43,152
-43,08
-42,968
-42,815
-42,62
-42,383
-42,105
-41,784
-41,423
-41,023
-40,584
-40,109
-39,601
-39,061
-38,492
-37,898
-37,281
-36,646
-35,995
-35,334
-34,666
-33,994
-33,324
-32,66
-32,006
-31,365
-30,743
-30,144
-29,571
-29,029
-28,52
-28,049
-27,619
-27,232
-26,891
-26,598
-26,355
-26,164
-26,026
-25,941
-25,912
-25,937
-26,017
-26,151
-26,338
-26,578
-26,868
-27,206
-27,59
-28,019
-28,487
-28,994
-29,534
-30,105
-30,703
-31,323
-31,962
-32,615
-33,278
-33,946
-34,614
-35,278
-35,934
-36,577
-37,204
-37,81
-38,391
-38,945
-39,468
-39,956
-40,408
-40,821
-41,192
-41,519
-41,803
-42,041
-42,233
-42,379
-42,479
-42,534
-42,545
-42,514
-42,443
-42,332
-42,186
-42,007
-41,797
-41,561
-41,303
-41,026
-40,735
-40,433
-40,127
-39,82
-39,517
-39,222
-38,94
-38,676
-38,432
-38,214
-38,026
-37,87
-37,75
-37,671
-37,633
-37,641
-37,695
-37,797
-37,949
-38,151
-38,404
-38,706
-39,058
-39,459
-39,907
-40,399
-40,935
-41,511
-42,124
-42,77
-43,445
-44,145
-44,865
-45,6
-46,345
-47,094
-47,842
-48,583
-49,312
-50,023
-50,709
-51,366
-51,988
-52,568
-53,102
-53,584
-54,008
-54,371
-54,667
-54,892
-55,042
-55,112
-55,1
-55,003
-54,817
-54,54
-54,171
-53,708
-53,15
-52,496
-51,747
-50,902
-49,963
-48,931
-47,807
-46,595
-45,296
-43,915
-42,454
-40,917
-39,309
-37,635
-35,901
-34,111
-32,271
-30,388
-28,47
-26,522
-24,553
-22,571
-20,584
-18,601
-16,633
-14,69
-12,781
-10,919
-9,113
-7,376
-5,719
-4,152
-2,686
-1,331
-0,096
1,009
1,973
2,788
3,445
3,934
4,246
4,373
4,308
4,044
3,58
2,913
2,042
0,967
-0,318
-1,813
-3,518
-5,429
-7,544
-9,854
-12,349
-15,01
-17,805
-20,702
-23,667
-26,668
-29,68
-32,677
-35,627
-38,501
-41,263
-43,878
-46,318
-48,554
-50,558
-52,312
-53,808
-55,06
-56,12
-57,044
-57,889
-58,706
-59,523
-60,374
-61,312
-62,389
-63,67
-65,223
-67,088
-69,33
-72,056
-75,271
-78,886
-82,698
-86,32
-89,374
-91,594
-92,633
-92,115
-89,953
-86,291
-81,573
-76,616
-72,044
-68,136
-65,251
-63,721
-63,295
-63,222
-62,115
-57,95
-49,087
-34,501
-13,155
15,982
53,191
97,948
148,683
202,69
257,34
310,49
359,859
402,789
436,932
460,434
472,272
472,713
462,401
441,754
411,342
372,357
326,304
274,988
220,33
163,637
105,951
48,686
-6,283
-57,063
-101,842
-139,21
-168,408
-188,737
-199,521
-200,57
-192,675
-177,438
-157,115
-134,169
-110,681
-88,585
-69,725
-55,681
-47,27
-44,446
-46,313
-51,424
-58,328
-65,586
-71,958
-76,37
-78,074
-76,841
-72,955
-67,107
-60,167
-53,067
-46,452
-40,768
-36,326
-33,189
-31,284
-30,409
-30,206
-30,268
-30,352
-30,349
-30,225
-30,046
-29,843
-29,622
-29,415
-29,251
-29,139
-29,066
-28,986
-28,827
-28,531
-28,071
-27,447
-26,676
-25,768
-24,709
-23,482
-22,069
-20,465
-18,673
-16,702
-14,559
-12,252
-9,8
-7,23
-4,58
-1,895
0,799
3,492
6,187
8,886
11,589
14,292
16,997
19,713
22,449
25,212
28,007
30,839
33,716
36,655
39,678
42,809
46,068
49,466
53,01
56,706
60,556
64,562
68,722
73,027
77,472
82,05
86,759
91,596
96,56
101,643
106,84
112,144
117,548
123,046
128,633
134,302
140,045
145,854
151,722
157,647
163,627
169,657
175,726
181,822
187,931
194,035
200,116
206,15
212,106
217,953
223,665
229,214
234,588
239,774
244,759
249,527
254,065
258,364
262,43
266,271
269,893
273,305
276,515
279,541
282,42
285,181
287,846
290,426
292,913
295,287
297,534
299,629
301,539
303,22
304,605
305,619
306,206
306,31
305,876
304,847
303,141
300,688
297,44
293,365
288,453
282,714
276,156
268,801
260,701
251,918
242,542
232,678
222,409
211,811
200,965
189,95
178,868
167,809
156,845
146,035
135,427
125,057
114,966
105,184
95,716
86,557
77,688
69,079
60,718
52,599
44,717
37,067
29,639
22,422
15,42
8,645
2,106
-4,188
-10,231
-16,016
-21,527
-26,741
-31,637
-36,19
-40,387
-44,22
-47,683
-50,773
-53,493
-55,846
-57,842
-59,497
-60,824
-61,837
-62,548
-62,971
-63,122
-63,021
-62,686
-62,136
-61,39
-60,465
-59,379
-58,148
-56,789
-55,315
-53,742
-52,08
-50,345
-48,548
-46,703
-44,823
-42,921
-41,008
-39,095
-37,193
-35,313
-33,462
-31,649
-29,881
-28,162
-26,5
-24,899
-23,361
-21,892
-20,493
-19,167
-17,916
-16,741
-15,644
-14,623
-13,681
-12,816
-12,029
-11,319
-10,685
-10,125
-9,641
-9,23
-8,891
-8,624
-8,427
-8,299
-8,239
-8,245
-8,315
-8,447
-8,641
-8,893
-9,203
-9,568
-9,987
-10,458
-10,98
-11,551
-12,169
-12,834
-13,543
-14,295
-15,087
-15,918
-16,785
-17,686
-18,619
-19,581
-20,571
-21,585
-22,622
-23,677
-24,749
-25,834
-26,929
-28,03
-29,134
-30,237
-31,337
-32,429
-33,512
-34,581
-35,635
-36,671
-37,685
-38,676
-39,642
-40,581
-41,49
-42,367
-43,212
-44,023
-44,8
-45,54
-46,245
-46,914
-47,546
-48,142
-48,703
-49,228
-49,719
-50,176
-50,601
-50,995
-51,359
-51,696
-52,008
-52,297
-52,565
-52,815
-53,048
-53,268
-53,476
-53,673
-53,863
-54,046
-54,224
-54,398
-54,569
-54,74
-54,91
-55,08
-55,25
-55,422
-55,595
-55,768
-55,943
-56,117
-56,291
-56,465
-56,637
-56,807
-56,974
-57,136
-57,294
-57,445
-57,589
-57,722
-57,845
-57,954
-58,049
-58,128
-58,189
-58,231
-58,252
-58,253
-58,23
-58,185
-58,116
-58,023
-57,906
-57,765
-57,599
-57,409
-57,196
-56,96
-56,703
-56,424
-56,125
-55,807
-55,471
-55,118
-54,749
-54,365
-53,967
-53,556
-53,134
-52,703
-52,262
-51,815
-51,363
-50,907
-50,449
-49,991
-49,533
-49,078
-48,628
-48,182
-47,744
-47,313
-46,891
-46,478
-46,077
-45,688
-45,311
-44,948
-44,599
-44,264
-43,945
-43,641
-43,355
-43,086
-42,835
-42,604
-42,393
-42,203
-42,035
-41,89
-41,769
-41,671
-41,599
-41,552
-41,531
-41,535
-41,567
-41,624
-41,708
-41,819
-41,955
-42,117
-42,304
-42,516
-42,751
-43,009
-43,288
-43,588
-43,906
-44,242
-44,593
-44,958
-45,334
-45,719
-46,11
-46,505
-46,9
-47,291
-47,677
-48,054
-48,417
-48,765
-49,093
-49,399
-49,679
-49,93
-50,149
-50,334
-50,482
-50,59
-50,658
-50,682
-50,661
-50,595
-50,482
-50,321
-50,113
-49,858
-49,556
-49,207
-48,813
-48,376
-47,898
-47,38
-46,826
-46,239
-45,622
-44,98
-44,317
-43,636
-42,944
-42,243
-41,54
-40,84
-40,146
-39,464
-38,8
-38,157
-37,54
-36,954
-36,403
-35,891
-35,422
-34,999
-34,625
-34,304
-34,036
-33,826
-33,673
-33,58
-33,548
-33,576
-33,666
-33,816
-34,027
-34,296
-34,621
-35,002
-35,434
-35,915
-36,441
-37,009
-37,614
-38,252
-38,92
-39,611
-40,322
-41,048
-41,784
-42,526
-43,268
-44,006
-44,737
-45,454
-46,156
-46,837
-47,493
-48,123
-48,722
-49,287
-49,817
-50,309
-50,761
-51,171
-51,539
-51,864
-52,145
-52,384
-52,581
-52,736
-52,851
-52,928
-52,97
-52,977
-52,953
-52,902
-52,825
-52,727
-52,611
-52,482
-52,342
-52,197
-52,049
-51,904
-51,764
-51,633
-51,516
-51,415
-51,334
-51,275
-51,243
-51,238
-51,263
-51,321
-51,411
-51,535
-51,691
-51,88
-52,1
-52,348
-52,622
-52,922
-53,243
-53,583
-53,94
-54,31
-54,692
-55,081
-55,472
-55,858
-56,233
-56,589
-56,92
-57,216
-57,468
-57,667
-57,806
-57,88
-57,883
-57,807
-57,644
-57,383
-57,016
-56,539
-55,951
-55,251
-54,438
-53,515
-52,493
-51,388
-50,217
-48,993
-47,716
-46,385
-45
-43,56
-42,07
-40,53
-38,933
-37,269
-35,531
-33,722
-31,839
-29,876
-27,812
-25,611
-23,249
-20,717
-18,028
-15,203
-12,264
-9,239
-6,164
-3,086
-0,073
2,815
5,53
8,036
10,296
12,263
13,87
15,037
15,702
15,825
15,386
14,378
12,797
10,656
7,985
4,838
1,29
-2,6
-6,79
-11,247
-15,937
-20,81
-25,801
-30,831
-35,831
-40,738
-45,499
-50,064
-54,388
-58,443
-62,216
-65,714
-68,951
-71,918
-74,591
-76,944
-78,952
-80,599
-81,892
-82,85
-83,502
-83,9
-84,089
-84,103
-83,987
-83,777
-83,512
-83,24
-83,004
-82,857
-82,884
-83,214
-83,913
-84,951
-86,18
-87,305
-88,029
-88,129
-87,355
-85,387
-82,076
-77,56
-72,288
-67,086
-62,721
-59,551
-57,801
-57,706
-59,149
-61,484
-63,479
-63,157
-58,492
-48,124
-31,027
-6,265
26,637
67,487
115,263
167,793
222,303
276,31
327,509
373,535
412,162
441,443
459,9
466,991
463,084
448,801
424,802
391,852
350,952
303,443
251,009
195,368
137,887
79,76
22,412
-32,237
-82,144
-125,445
-160,756
-187,326
-204,628
-212,241
-210,224
-199,628
-182,232
-160,298
-136,164
-111,764
-88,844
-69,022
-53,605
-43,147
-37,46
-35,706
-36,683
-39,251
-42,279
-44,811
-46,064
-45,586
-43,372
-39,784
-35,419
-30,946
-27,054
-24,206
-22,703
-22,699
-24,097
-26,683
-30,156
-34,113
-38,139
-41,939
-45,291
-48,043
-50,146
-51,565
-52,287
-52,353
-51,813
-50,707
-49,077
-46,961
-44,397
-41,445
-38,17
-34,648
-30,953
-27,16
-23,346
-19,581
-15,913
-12,378
-8,998
-5,781
-2,735
0,137
2,846
5,407
7,838
10,16
12,39
14,549
16,664
18,765
20,884
23,045
25,265
27,559
29,938
32,408
34,979
37,656
40,438
43,326
46,324
49,436
52,668
56,024
59,507
63,117
66,856
70,726
74,729
78,868
83,144
87,558
92,111
96,804
101,638
106,611
111,721
116,963
122,333
127,825
133,432
139,146
144,96
150,863
156,848
162,904
169,021
175,188
181,394
187,627
193,873
200,119
206,351
212,554
218,712
224,808
230,825
236,746
242,551
248,222
253,74
259,086
264,242
269,189
273,909
278,387
282,605
286,546
290,196
293,538
296,556
299,235
301,56
303,517
305,092
306,273
307,046
307,404
307,337
306,839
305,901
304,513
302,67
300,372
297,62
294,421
290,782
286,716
282,238
277,373
272,147
266,583
260,705
254,528
248,067
241,338
234,361
227,156
219,737
212,109
204,27
196,227
187,982
179,538
170,89
162,019
152,911
143,563
133,978
124,179
114,198
104,061
93,805
83,471
73,115
62,808
52,632
42,652
32,935
23,543
14,543
6,024
-1,938
-9,286
-15,977
-21,988
-27,314
-31,945
-35,885
-39,163
-41,817
-43,909
-45,517
-46,695
-47,498
-47,98
-48,197
-48,222
-48,121
-47,942
-47,721
-47,486
-47,254
-47,047
-46,879
-46,744
-46,627
-46,5
-46,327
-46,089
-45,772
-45,363
-44,852
-44,221
-43,458
-42,562
-41,539
-40,398
-39,144
-37,785
-36,326
-34,786
-33,187
-31,552
-29,908
-28,274
-26,665
-25,094
-23,573
-22,11
-20,715
-19,39
-18,134
-16,948
-15,834
-14,794
-13,831
-12,945
-12,134
-11,396
-10,729
-10,132
-9,604
-9,143
-8,75
-8,425
-8,167
-7,977
-7,857
-7,807
-7,824
-7,909
-8,059
-8,271
-8,543
-8,873
-9,257
-9,691
-10,174
-10,703
-11,274
-11,886
-12,535
-13,218
-13,932
-14,676
-15,446
-16,239
-17,054
-17,888
-18,738
-19,602
-20,478
-21,364
-22,258
-23,156
-24,058
-24,961
-25,863
-26,762
-27,657
-28,547
-29,43
-30,305
-31,173
-32,032
-32,883
-33,724
-34,555
-35,378
-36,191
-36,995
-37,789
-38,575
-39,351
-40,118
-40,875
-41,623
-42,361
-43,088
-43,804
-44,509
-45,201
-45,88
-46,546
-47,197
-47,834
-48,457
-49,064
-49,655
-50,23
-50,789
-51,331
-51,856
-52,363
-52,853
-53,324
-53,778
-54,213
-54,631
-55,031
-55,413
-55,778
-56,126
-56,457
-56,772
-57,072
-57,358
-57,63
-57,889
-58,138
-58,378
-58,61
-58,836
-59,057
-59,276
-59,494
-59,712
-59,932
-60,155
-60,381
-60,613
-60,851
-61,095
-61,347
-61,606
-61,874
-62,149
-62,432
-62,722
-63,018
-63,32
-63,627
-63,936
-64,248
-64,561
-64,874
-65,184
-65,491
-65,793
-66,087
-66,372
-66,645
-66,905
-67,149
-67,376
-67,582
-67,767
-67,929
-68,066
-68,178
-68,262
-68,318
-68,346
-68,344
-68,313
-68,253
-68,163
-68,046
-67,901
-67,73
-67,535
-67,316
-67,077
-66,819
-66,543
-66,253
-65,95
-65,636
-65,314
-64,986
-64,654
-64,321
-63,989
-63,661
-63,338
-63,023
-62,717
-62,423
-62,141
-61,874
-61,622
-61,386
-61,167
-60,965
-60,781
-60,615
-60,466
-60,333
-60,216
-60,113
-60,023
-59,945
-59,875
-59,812
-59,754
-59,699
-59,645
-59,589
-59,529
-59,462
-59,388
-59,302
-59,204
-59,091
-58,961
-58,812
-58,643
-58,453
-58,24
-58,003
-57,742
-57,456
-57,143
-56,805
-56,442
-56,052
-55,638
-55,2
-54,738
-54,255
-53,753
-53,232
-52,697
-52,149
-51,59
-51,024
-50,454
-49,882
-49,312
-48,746
-48,188
-47,641
-47,108
-46,591
-46,094
-45,62
-45,171
-44,75
-44,359
-43,999
-43,674
-43,385
-43,134
-42,921
-42,75
-42,619
-42,532
-42,487
-42,486
-42,529
-42,615
-42,744
-42,915
-43,127
-43,377
-43,665
-43,989
-44,345
-44,733
-45,149
-45,59
-46,054
-46,537
-47,037
-47,55
-48,073
-48,603
-49,137
-49,672
-50,205
-50,734
-51,255
-51,767
-52,266
-52,751
-53,218
-53,666
-54,092
-54,495
-54,872
-55,221
-55,543
-55,835
-56,096
-56,328
-56,528
-56,697
-56,836
-56,945
-57,024
-57,076
-57,101
-57,102
-57,08
-57,038
-56,978
-56,903
-56,816
-56,718
-56,613
-56,502
-56,387
-56,271
-56,156
-56,044
-55,938
-55,838
-55,747
-55,668
-55,601
-55,55
-55,514
-55,495
-55,494
-55,512
-55,548
-55,604
-55,679
-55,774
-55,886
-56,016
-56,162
-56,322
-56,494
-56,674
-56,859
-57,046
-57,23
-57,407
-57,572
-57,719
-57,845
-57,947
-58,02
-58,06
-58,064
-58,026
-57,945
-57,816
-57,634
-57,392
-57,086
-56,71
-56,259
-55,732
-55,124
-54,431
-53,65
-52,779
-51,819
-50,769
-49,625
-48,383
-47,037
-45,585
-44,033
-42,391
-40,667
-38,867
-36,998
-35,073
-33,105
-31,106
-29,078
-27,017
-24,914
-22,771
-20,595
-18,403
-16,212
-14,028
-11,85
-9,677
-7,513
-5,363
-3,229
-1,101
1,034
3,177
5,304
7,373
9,343
11,186
12,886
14,435
15,821
17,024
18,017
18,779
19,299
19,561
19,544
19,212
18,524
17,466
16,051
14,314
12,288
9,993
7,442
4,645
1,626
-1,585
-4,953
-8,445
-12,029
-15,663
-19,296
-22,867
-26,311
-29,582
-32,65
-35,497
-38,096
-40,422
-42,452
-44,163
-45,558
-46,652
-47,465
-48,041
-48,426
-48,666
-48,826
-48,98
-49,204
-49,583
-50,201
-51,127
-52,462
-54,335
-56,791
-59,8
-63,216
-66,764
-70,193
-73,291
-75,776
-77,297
-77,632
-76,78
-75,081
-73,186
-71,586
-70,487
-70,001
-70,274
-71,365
-72,868
-73,677
-72,053
-66,336
-55,357
-38,343
-14,576
16,726
55,69
101,454
152,14
205,254
258,443
309,69
356,883
397,546
429,55
451,311
462,031
462,046
451,995
432,433
404,086
367,931
325,13
277,238
225,907
172,206
117,098
61,684
7,443
-43,501
-89,05
-127,631
-158,202
-180,047
-192,665
-195,68
-189,595
-176,226
-157,888
-137,075
-116,029
-96,23
-78,966
-65,643
-56,944
-52,549
-51,574
-52,509
-53,833
-54,812
-54,904
-53,435
-50,118
-45,049
-38,623
-31,781
-25,537
-20,36
-16,49
-14,128
-13,272
-13,886
-15,848
-18,739
-22,048
-25,456
-28,759
-31,832
-34,625
-37,023
-38,89
-40,183
-40,912
-41,1
-40,769
-39,918
-38,534
-36,639
-34,294
-31,57
-28,543
-25,275
-21,811
-18,199
-14,499
-10,786
-7,126
-3,564
-0,128
3,173
6,329
9,328
12,17
14,867
17,443
19,923
22,33
24,68
26,99
29,278
31,569
33,894
36,275
38,729
41,266
43,896
46,627
49,467
52,42
55,484
58,656
61,936
65,325
68,826
72,441
76,169
80,009
83,958
88,016
92,182
96,456
100,836
105,32
109,906
114,592
119,378
124,26
129,236
134,3
139,446
144,668
149,961
155,316
160,727
166,184
171,681
177,209
182,759
188,323
193,891
199,454
205,001
210,522
216,006
221,441
226,815
232,116
237,332
242,449
247,453
252,331
257,068
261,649
266,06
270,287
274,314
278,125
281,707
285,043
288,121
290,924
293,439
295,653
297,551
299,12
300,349
301,226
301,739
301,879
301,635
300,999
299,963
298,522
296,669
294,4
291,715
288,61
285,087
281,149
276,799
272,043
266,888
261,344
255,421
249,132
242,492
235,515
228,219
220,623
212,747
204,612
196,24
187,657
178,885
169,95
160,879
151,698
142,435
133,116
123,771
114,426
105,111
95,852
86,677
77,613
68,686
59,921
51,344
42,977
34,842
26,96
19,35
12,029
5,013
-1,684
-8,051
-14,076
-19,753
-25,073
-30,034
-34,632
-38,867
-42,74
-46,253
-49,412
-52,223
-54,692
-56,83
-58,647
-60,153
-61,364
-62,291
-62,95
-63,357
-63,527
-63,479
-63,229
-62,796
-62,196
-61,448
-60,57
-59,58
-58,493
-57,328
-56,099
-54,823
-53,514
-52,186
-50,851
-49,521
-48,207
-46,919
-45,665
-44,453
-43,29
-42,182
-41,132
-40,146
-39,225
-38,372
-37,587
-36,873
-36,228
-35,652
-35,144
-34,701
-34,322
-34,003
-33,741
-33,534
-33,377
-33,267
-33,2
-33,172
-33,18
-33,22
-33,289
-33,383
-33,5
-33,636
-33,79
-33,959
-34,142
-34,338
-34,546
-34,765
-34,996
-35,238
-35,492
-35,759
-36,039
-36,333
-36,642
-36,967
-37,31
-37,671
-38,052
-38,452
-38,875
-39,319
-39,786
-40,277
-40,792
-41,33
-41,893
-42,48
-43,09
-43,724
-44,38
-45,057
-45,755
-46,471
-47,205
-47,953
-48,715
-49,487
-50,268
-51,054
-51,842
-52,63
-53,414
-54,191
-54,958
-55,713
-56,451
-57,171
-57,87
-58,545
-59,195
-59,816
-60,408
-60,97
-61,499
-61,995
-62,457
-62,885
-63,278
-63,636
-63,96
-64,25
-64,507
-64,731
-64,923
-65,084
-65,216
-65,32
-65,397
-65,449
-65,478
-65,487
-65,476
-65,45
-65,409
-65,356
-65,294
-65,225
-65,151
-65,073
-64,995
-64,918
-64,843
-64,772
-64,706
-64,648
-64,597
-64,555
-64,523
-64,5
-64,489
-64,489
-64,5
-64,523
-64,558
-64,605
-64,664
-64,736
-64,821
-64,919
-65,029
-65,151
-65,286
-65,432
-65,589
-65,757
-65,936
-66,123
-66,32
-66,524
-66,736
-66,956
-67,181
-67,412
-67,649
-67,89
-68,134
-68,383
-68,634
-68,887
-69,142
-69,397
-69,652
-69,907
-70,161
-70,411
-70,658
-70,9
-71,135
-71,362
-71,579
-71,785
-71,978
-72,156
-72,319
-72,464
-72,589
-72,695
-72,779
-72,84
-72,877
-72,889
-72,874
-72,831
-72,759
-72,657
-72,524
-72,36
-72,164
-71,936
-71,675
-71,381
-71,054
-70,695
-70,305
-69,883
-69,431
-68,951
-68,444
-67,913
-67,359
-66,786
-66,196
-65,593
-64,978
-64,356
-63,729
-63,1
-62,471
-61,847
-61,23
-60,623
-60,028
-59,449
-58,888
-58,348
-57,831
-57,339
-56,876
-56,442
-56,04
-55,671
-55,337
-55,039
-54,777
-54,552
-54,365
-54,215
-54,103
-54,026
-53,984
-53,975
-53,997
-54,049
-54,126
-54,228
-54,352
-54,494
-54,652
-54,824
-55,007
-55,199
-55,397
-55,599
-55,804
-56,01
-56,214
-56,415
-56,612
-56,804
-56,99
-57,168
-57,338
-57,499
-57,652
-57,796
-57,932
-58,058
-58,177
-58,288
-58,393
-58,492
-58,588
-58,681
-58,773
-58,867
-58,964
-59,065
-59,174
-59,291
-59,419
-59,557
-59,707
-59,869
-60,044
-60,231
-60,429
-60,639
-60,857
-61,084
-61,316
-61,552
-61,789
-62,025
-62,257
-62,48
-62,693
-62,892
-63,072
-63,231
-63,366
-63,472
-63,546
-63,584
-63,584
-63,542
-63,454
-63,317
-63,129
-62,886
-62,587
-62,23
-61,813
-61,335
-60,797
-60,198
-59,541
-58,826
-58,056
-57,234
-56,364
-55,449
-54,494
-53,503
-52,483
-51,438
-50,375
-49,301
-48,222
-47,143
-46,073
-45,017
-43,982
-42,973
-41,997
-41,06
-40,166
-39,321
-38,53
-37,797
-37,126
-36,52
-35,982
-35,514
-35,118
-34,794
-34,541
-34,359
-34,245
-34,196
-34,21
-34,28
-34,403
-34,572
-34,781
-35,022
-35,29
-35,575
-35,868
-36,163
-36,449
-36,717
-36,96
-37,167
-37,33
-37,44
-37,49
-37,472
-37,378
-37,201
-36,935
-36,575
-36,115
-35,55
-34,878
-34,096
-33,201
-32,193
-31,072
-29,841
-28,501
-27,056
-25,511
-23,872
-22,145
-20,339
-18,46
-16,519
-14,525
-12,489
-10,422
-8,337
-6,244
-4,158
-2,09
-0,055
1,932
3,858
5,707
7,464
9,116
10,649
12,049
13,304
14,405
15,341
16,104
16,686
17,077
17,271
17,262
17,043
16,611
15,965
15,103
14,027
12,745
11,263
9,586
7,718
5,658
3,408
0,975
-1,632
-4,404
-7,322
-10,362
-13,493
-16,672
-19,86
-23,019
-26,117
-29,127
-32,019
-34,756
-37,296
-39,594
-41,61
-43,313
-44,679
-45,686
-46,337
-46,656
-46,693
-46,526
-46,224
-45,838
-45,419
-45,022
-44,719
-44,603
-44,772
-45,299
-46,259
-47,73
-49,709
-52,13
-54,831
-57,532
-59,933
-61,782
-62,854
-62,949
-62,094
-60,497
-58,428
-56,251
-54,218
-52,366
-50,617
-48,853
-46,545
-42,766
-36,61
-27,157
-13,682
4,112
26,382
53,363
84,75
119,587
156,848
195,244
233,365
270,091
304,194
333,928
357,784
374,69
383,595
383,936
375,632
358,529
332,742
299,25
259,323
214,376
166,297
116,814
67,314
19,424
-25,115
-65,113
-99,564
-127,631
-149,196
-164,323
-172,885
-175,096
-171,594
-162,927
-150,003
-134,087
-116,059
-96,752
-77,381
-59,115
-42,878
-29,646
-19,86
-13,364
-10,036
-9,594
-11,292
-14,214
-17,515
-20,298
-22,033
-22,637
-22,088
-20,521
-18,365
-16,193
-14,466
-13,569
-13,676
-14,707
-16,537
-18,981
-21,729
-24,395
-26,694
-28,434
-29,521
-29,98
-29,838
-29,117
-27,874
-26,187
-24,117
-21,721
-19,041
-16,093
-12,919
-9,574
-6,12
-2,636
0,814
4,193
7,47
10,629
13,662
16,561
19,325
21,965
24,492
26,917
29,249
31,496
33,668
35,785
37,869
39,95
42,049
44,182
46,358
48,585
50,869
53,216
55,628
58,102
60,639
63,241
65,911
68,656
71,481
74,389
77,381
80,459
83,626
86,886
90,241
93,695
97,25
100,91
104,68
108,563
112,563
116,682
120,921
125,279
129,755
134,348
139,055
143,873
148,798
153,825
158,951
164,169
169,474
174,86
180,316
185,835
191,406
197,018
202,658
208,311
213,962
219,595
225,195
230,744
236,225
241,622
246,915
252,088
257,123
262,002
266,705
271,212
275,501
279,552
283,345
286,858
290,071
292,966
295,525
297,731
299,571
301,03
302,094
302,747
302,973
302,759
302,097
300,981
299,408
297,382
294,91
292,007
288,694
284,983
280,886
276,411
271,558
266,333
260,74
254,785
248,48
241,838
234,869
227,592
220,023
212,166
204,025
195,59
186,842
177,787
168,438
158,818
148,973
138,948
128,796
118,589
108,384
98,233
88,19
78,292
68,58
59,106
49,927
41,112
32,739
24,864
17,527
10,757
4,557
-1,081
-6,178
-10,785
-14,943
-18,684
-22,036
-25,017
-27,639
-29,933
-31,931
-33,671
-35,206
-36,576
-37,811
-38,943
-39,982
-40,932
-41,783
-42,507
-43,08
-43,493
-43,739
-43,825
-43,762
-43,553
-43,207
-42,731
-42,127
-41,398
-40,551
-39,587
-38,518
-37,362
-36,139
-34,881
-33,615
-32,364
-31,143
-29,966
-28,84
-27,774
-26,772
-25,835
-24,965
-24,165
-23,439
-22,79
-22,22
-21,729
-21,314
-20,971
-20,694
-20,481
-20,326
-20,225
-20,175
-20,173
-20,216
-20,303
-20,432
-20,6
-20,803
-21,039
-21,302
-21,59
-21,899
-22,225
-22,564
-22,915
-23,275
-23,641
-24,013
-24,388
-24,767
-25,148
-25,53
-25,913
-26,297
-26,682
-27,068
-27,456
-27,844
-28,235
-28,628
-29,025
-29,425
-29,829
-30,237
-30,651
-31,071
-31,497
-31,928
-32,367
-32,811
-33,262
-33,72
-34,184
-34,654
-35,129
-35,61
-36,095
-36,583
-37,072
-37,563
-38,052
-38,539
-39,022
-39,499
-39,968
-40,429
-40,879
-41,317
-41,741
-42,151
-42,546
-42,923
-43,284
-43,626
-43,95
-44,255
-44,541
-44,808
-45,057
-45,288
-45,501
-45,697
-45,877
-46,042
-46,193
-46,333
-46,461
-46,581
-46,694
-46,803
-46,908
-47,013
-47,121
-47,232
-47,349
-47,475
-47,611
-47,759
-47,921
-48,098
-48,291
-48,503
-48,732
-48,981
-49,249
-49,537
-49,844
-50,171
-50,516
-50,88
-51,261
-51,658
-52,071
-52,498
-52,937
-53,388
-53,849
-54,318
-54,792
-55,271
-55,751
-56,231
-56,708
-57,181
-57,646
-58,102
-58,547
-58,98
-59,397
-59,798
-60,182
-60,547
-60,892
-61,216
-61,52
-61,802
-62,062
-62,301
-62,518
-62,715
-62,89
-63,046
-63,181
-63,298
-63,396
-63,475
-63,537
-63,582
-63,611
-63,623
-63,621
-63,604
-63,573
-63,529
-63,472
-63,404
-63,325
-63,234
-63,133
-63,021
-62,898
-62,765
-62,621
-62,465
-62,298
-62,119
-61,926
-61,721
-61,5
-61,265
-61,014
-60,746
-60,461
-60,157
-59,835
-59,495
-59,136
-58,758
-58,363
-57,95
-57,52
-57,074
-56,613
-56,137
-55,648
-55,146
-54,634
-54,113
-53,583
-53,048
-52,508
-51,966
-51,424
-50,884
-50,348
-49,818
-49,297
-48,787
-48,289
-47,807
-47,342
-46,896
-46,472
-46,071
-45,694
-45,343
-45,02
-44,724
-44,456
-44,217
-44,007
-43,825
-43,671
-43,544
-43,444
-43,371
-43,322
-43,297
-43,296
-43,316
-43,357
-43,417
-43,494
-43,587
-43,694
-43,813
-43,944
-44,084
-44,232
-44,386
-44,546
-44,709
-44,875
-45,042
-45,209
-45,376
-45,542
-45,707
-45,869
-46,03
-46,189
-46,347
-46,504
-46,66
-46,816
-46,972
-47,13
-47,288
-47,448
-47,61
-47,774
-47,94
-48,108
-48,279
-48,453
-48,629
-48,808
-48,99
-49,174
-49,361
-49,549
-49,738
-49,929
-50,119
-50,31
-50,499
-50,687
-50,872
-51,055
-51,233
-51,405
-51,572
-51,732
-51,885
-52,028
-52,163
-52,288
-52,404
-52,51
-52,607
-52,696
-52,777
-52,851
-52,921
-52,987
-53,052
-53,116
-53,182
-53,251
-53,327
-53,41
-53,503
-53,608
-53,726
-53,861
-54,013
-54,184
-54,377
-54,592
-54,83
-55,093
-55,38
-55,694
-56,033
-56,399
-56,789
-57,205
-57,644
-58,104
-58,584
-59,08
-59,59
-60,109
-60,634
-61,158
-61,678
-62,188
-62,683
-63,155
-63,601
-64,012
-64,385
-64,711
-64,986
-65,203
-65,356
-65,441
-65,451
-65,382
-65,229
-64,988
-64,655
-64,227
-63,701
-63,075
-62,349
-61,52
-60,588
-59,555
-58,42
-57,187
-55,858
-54,436
-52,926
-51,334
-49,666
-47,928
-46,129
-44,276
-42,379
-40,446
-38,488
-36,513
-34,534
-32,559
-30,601
-28,669
-26,776
-24,933
-23,152
-21,446
-19,828
-18,308
-16,9
-15,612
-14,457
-13,441
-12,572
-11,857
-11,301
-10,911
-10,692
-10,651
-10,792
-11,116
-11,626
-12,322
-13,201
-14,26
-15,492
-16,89
-18,449
-20,167
-22,045
-24,084
-26,279
-28,621
-31,099
-33,692
-36,38
-39,135
-41,92
-44,7
-47,443
-50,121
-52,712
-55,191
-57,523
-59,667
-61,578
-63,213
-64,545
-65,557
-66,238
-66,602
-66,675
-66,505
-66,158
-65,689
-65,154
-64,61
-64,116
-63,751
-63,611
-63,781
-64,358
-65,457
-67,09
-69,191
-71,622
-74,133
-76,489
-78,523
-80,047
-80,867
-81,008
-80,662
-80,118
-79,812
-79,945
-80,366
-80,825
-81,002
-80,331
-78,114
-73,553
-65,639
-53,728
-37,775
-17,964
5,416
31,935
61,239
92,854
125,726
158,752
191,161
222,154
250,86
276,304
296,928
311,059
317,845
316,912
308,02
291,333
267,114
235,78
198,707
157,762
114,405
69,942
25,549
-17,841
-58,971
-96,376
-129,049
-156,227
-177,246
-191,737
-199,43
-200,265
-194,672
-183,432
-167,759
-149,265
-129,47
-109,767
-91,35
-74,993
-61,365
-51,128
-44,255
-40,17
-38,174
-37,323
-36,967
-36,899
-36,757
-36,018
-34,551
-32,486
-30,159
-28,224
-27,016
-26,514
-26,773
-27,846
-29,674
-32,152
-35,012
-37,805
-40,259
-42,259
-43,7
-44,56
-44,814
-44,417
-43,406
-41,876
-39,902
-37,547
-34,868
-31,9
-28,709
-25,381
-21,999
-18,63
-15,32
-12,103
-9,013
-6,073
-3,299
-0,696
1,743
4,027
6,161
8,159
10,033
11,804
13,499
15,146
16,778
18,422
20,099
21,824
23,612
25,472
27,412
29,437
31,547
33,747
36,042
38,439
40,943
43,559
46,292
49,143
52,116
55,212
58,434
61,784
65,267
68,886
72,643
76,543
80,589
84,783
89,126
93,616
98,252
103,031
107,948
113
118,18
123,483
128,902
134,429
140,058
145,779
151,585
157,463
163,404
169,397
175,427
181,484
187,552
193,617
199,666
205,681
211,648
217,549
223,369
229,09
234,694
240,163
245,48
250,626
255,582
260,332
264,857
269,141
273,167
276,917
280,378
283,533
286,368
288,87
291,024
292,82
294,245
295,289
295,944
296,201
296,053
295,496
294,525
293,138
291,334
289,113
286,477
283,429
279,975
276,121
271,876
267,248
262,251
256,897
251,2
245,176
238,842
232,216
225,317
218,165
210,781
203,187
195,406
187,46
179,374
171,171
162,875
154,511
146,105
137,679
129,258
120,867
112,528
104,265
96,101
88,057
80,154
72,413
64,852
57,49
50,345
43,43
36,761
30,35
24,21
18,349
12,776
7,499
2,523
-2,147
-6,509
-10,561
-14,303
-17,735
-20,861
-23,684
-26,208
-28,439
-30,384
-32,052
-33,449
-34,587
-35,474
-36,122
-36,542
-36,747
-36,749
-36,56
-36,196
-35,668
-34,992
-34,18
-33,247
-32,206
-31,071
-29,855
-28,571
-27,231
-25,848
-24,432
-22,995
-21,547
-20,099
-18,659
-17,238
-15,842
-14,479
-13,158
-11,883
-10,662
-9,5
-8,401
-7,37
-6,411
-5,527
-4,721
-3,995
-3,35
-2,788
-2,309
-1,913
-1,6
-1,368
-1,216
-1,143
-1,146
-1,223
-1,372
-1,59
-1,874
-2,222
-2,63
-3,096
-3,617
-4,189
-4,809
-5,475
-6,182
-6,928
-7,709
-8,522
-9,364
-10,23
-11,119
-12,025
-12,946
-13,878
-14,818
-15,762
-16,707
-17,65
-18,587
-19,516
-20,435
-21,342
-22,233
-23,107
-23,962
-24,796
-25,608
-26,396
-27,158
-27,894
-28,602
-29,281
-29,93
-30,547
-31,133
-31,685
-32,205
-32,69
-33,142
-33,561
-33,945
-34,296
-34,615
-34,902
-35,159
-35,388
-35,589
-35,764
-35,917
-36,048
-36,16
-36,255
-36,335
-36,403
-36,46
-36,508
-36,55
-36,587
-36,622
-36,656
-36,691
-36,729
-36,772
-36,822
-36,879
-36,947
-37,025
-37,116
-37,22
-37,339
-37,473
-37,622
-37,788
-37,97
-38,168
-38,381
-38,609
-38,851
-39,105
-39,369
-39,642
-39,921
-40,205
-40,491
-40,777
-41,06
-41,339
-41,611
-41,875
-42,127
-42,367
-42,591
-42,799
-42,989
-43,159
-43,308
-43,435
-43,538
-43,618
-43,673
-43,704
-43,709
-43,69
-43,646
-43,579
-43,488
-43,375
-43,242
-43,091
-42,923
-42,741
-42,547
-42,345
-42,136
-41,926
-41,715
-41,509
-41,308
-41,118
-40,94
-40,777
-40,631
-40,506
-40,403
-40,325
-40,272
-40,246
-40,249
-40,28
-40,34
-40,43
-40,548
-40,695
-40,869
-41,069
-41,295
-41,544
-41,814
-42,103
-42,409
-42,728
-43,058
-43,396
-43,737
-44,079
-44,418
-44,75
-45,071
-45,378
-45,667
-45,935
-46,18
-46,397
-46,585
-46,741
-46,863
-46,95
-47
-47,013
-46,988
-46,925
-46,825
-46,689
-46,517
-46,311
-46,074
-45,806
-45,511
-45,191
-44,849
-44,489
-44,112
-43,724
-43,328
-42,927
-42,525
-42,126
-41,735
-41,354
-40,988
-40,64
-40,314
-40,013
-39,74
-39,497
-39,288
-39,113
-38,975
-38,874
-38,813
-38,791
-38,808
-38,865
-38,96
-39,093
-39,262
-39,466
-39,703
-39,971
-40,267
-40,59
-40,936
-41,304
-41,69
-42,091
-42,505
-42,929
-43,359
-43,793
-44,229
-44,663
-45,093
-45,515
-45,93
-46,333
-46,723
-47,098
-47,458
-47,801
-48,127
-48,434
-48,723
-48,993
-49,245
-49,478
-49,695
-49,895
-50,079
-50,249
-50,406
-50,551
-50,686
-50,811
-50,929
-51,04
-51,145
-51,246
-51,345
-51,442
-51,538
-51,634
-51,731
-51,831
-51,933
-52,039
-52,149
-52,262
-52,379
-52,5
-52,625
-52,752
-52,882
-53,013
-53,144
-53,274
-53,403
-53,529
-53,651
-53,767
-53,876
-53,977
-54,068
-54,148
-54,215
-54,269
-54,309
-54,333
-54,341
-54,332
-54,305
-54,261
-54,198
-54,116
-54,014
-53,893
-53,753
-53,593
-53,414
-53,216
-52,999
-52,766
-52,517
-52,253
-51,976
-51,687
-51,388
-51,08
-50,766
-50,447
-50,125
-49,803
-49,482
-49,166
-48,854
-48,551
-48,258
-47,977
-47,71
-47,457
-47,222
-47,006
-46,81
-46,635
-46,483
-46,355
-46,251
-46,174
-46,124
-46,101
-46,106
-46,138
-46,197
-46,282
-46,393
-46,527
-46,682
-46,857
-47,05
-47,257
-47,476
-47,703
-47,935
-48,169
-48,399
-48,622
-48,834
-49,03
-49,205
-49,355
-49,475
-49,56
-49,605
-49,605
-49,556
-49,453
-49,292
-49,067
-48,774
-48,41
-47,97
-47,452
-46,852
-46,167
-45,397
-44,54
-43,594
-42,561
-41,442
-40,237
-38,949
-37,58
-36,135
-34,618
-33,033
-31,386
-29,684
-27,934
-26,143
-24,32
-22,474
-20,614
-18,75
-16,896
-15,061
-13,26
-11,505
-9,81
-8,187
-6,65
-5,212
-3,884
-2,677
-1,602
-0,669
0,11
0,726
1,168
1,428
1,497
1,371
1,042
0,508
-0,23
-1,17
-2,31
-3,65
-5,194
-6,944
-8,901
-11,058
-13,408
-15,937
-18,63
-21,459
-24,391
-27,39
-30,417
-33,442
-36,438
-39,378
-42,233
-44,963
-47,52
-49,859
-51,946
-53,751
-55,254
-56,445
-57,337
-57,962
-58,381
-58,656
-58,834
-58,964
-59,096
-59,286
-59,605
-60,141
-60,962
-62,161
-63,855
-66,064
-68,728
-71,695
-74,671
-77,394
-79,681
-81,26
-81,809
-81,243
-79,652
-77,404
-75,167
-73,253
-71,621
-70,296
-69,324
-68,508
-67,396
-64,893
-59,353
-49,76
-35,683
-16,775
7,295
36,884
72,091
111,992
154,657
198,383
241,773
283,486
322,023
355,256
380,88
397,31
404,082
401,093
388,359
365,894
333,921
293,682
247,251
196,887
144,42
91,393
39,262
-10,184
-54,887
-93,461
-125,232
-150,078
-168,142
-179,508
-184,221
-182,935
-176,886
-167,112
-154,691
-140,529
-125,196
-109,537
-94,7
-81,333
-69,793
-60,571
-53,69
-49,029
-46,623
-45,992
-46,254
-46,873
-47,36
-47,104
-45,946
-43,875
-40,847
-37,247
-33,692
-30,535
-28,07
-26,591
-26,106
-26,551
-27,866
-29,784
-31,969
-34,235
-36,437
-38,45
-40,261
-41,852
-43,186
-44,289
-45,178
-45,821
-46,198
-46,294
-46,086
-45,588
-44,822
-43,794
-42,519
-41,013
-39,289
-37,374
-35,284
-33,026
-30,613
-28,067
-25,422
-22,727
-20,015
-17,301
-14,595
-11,897
-9,206
-6,524
-3,843
-1,15
1,564
4,31
7,09
9,903
12,755
15,655
18,62
21,671
24,821
28,078
31,448
34,937
38,546
42,28
46,135
50,107
54,19
58,385
62,692
67,111
71,642
76,28
81,021
85,859
90,793
95,819
100,935
106,138
111,427
116,801
122,259
127,804
133,432
139,14
144,922
150,772
156,687
162,662
168,697
174,785
180,918
187,084
193,275
199,473
205,662
211,815
217,898
223,884
229,752
235,485
241,073
246,505
251,77
256,857
261,757
266,462
270,969
275,268
279,346
283,197
286,824
290,241
293,479
296,555
299,463
302,194
304,723
307,021
309,06
310,798
312,18
313,158
313,682
313,715
313,239
312,226
310,645
308,451
305,581
301,996
297,688
292,659
286,922
280,497
273,405
265,69
257,431
248,699
239,564
230,088
220,307
210,26
199,998
189,581
179,081
168,553
158,024
147,516
137,059
126,692
116,466
106,41
96,516
86,78
77,201
67,788
58,571
49,58
40,831
32,337
24,114
16,185
8,595
1,391
-5,409
-11,808
-17,832
-23,495
-28,788
-33,701
-38,229
-42,377
-46,161
-49,597
-52,689
-55,444
-57,878
-60,018
-61,909
-63,594
-65,097
-66,421
-67,554
-68,488
-69,228
-69,786
-70,168
-70,378
-70,418
-70,298
-70,037
-69,656
-69,164
-68,567
-67,858
-67,034
-66,1
-65,07
-63,965
-62,803
-61,596
-60,357
-59,098
-57,834
-56,576
-55,328
-54,089
-52,856
-51,63
-50,416
-49,217
-48,038
-46,88
-45,743
-44,627
-43,53
-42,453
-41,394
-40,349
-39,317
-38,293
-37,278
-36,272
-35,276
-34,288
-33,308
-32,336
-31,371
-30,413
-29,461
-28,513
-27,568
-26,625
-25,683
-24,74
-23,798
-22,854
-21,908
-20,96
-20,01
-19,057
-18,101
-17,139
-16,173
-15,201
-14,221
-13,232
-12,234
-11,225
-10,205
-9,172
-8,126
-7,066
-5,992
-4,902
-3,795
-2,672
-1,53
-0,37
0,811
2,012
3,234
4,478
5,742
7,028
8,335
9,662
11,01
12,376
13,76
15,161
16,577
18,007
19,448
20,899
22,355
23,815
25,274
26,729
28,176
29,613
31,035
32,438
33,82
35,177
36,505
37,8
39,059
40,279
41,456
42,587
43,668
44,697
45,669
46,584
47,438
48,228
48,954
49,613
50,203
50,723
51,173
51,55
51,855
52,087
52,246
52,334
52,351
52,299
52,179
51,993
51,743
51,432
51,062
50,634
50,151
49,616
49,032
48,4
47,723
47,005
46,248
45,455
44,629
43,771
42,885
41,974
41,039
40,082
39,107
38,115
37,109
36,092
35,065
34,03
32,991
31,948
30,902
29,857
28,812
27,768
26,728
25,69
24,656
23,627
22,603
21,585
20,572
19,566
18,567
17,574
16,587
15,607
14,633
13,665
12,704
11,75
10,802
9,86
8,926
7,998
7,077
6,163
5,254
4,352
3,455
2,563
1,675
0,792
-0,089
-0,966
-1,84
-2,712
-3,582
-4,45
-5,318
-6,184
-7,051
-7,917
-8,784
-9,651
-10,519
-11,388
-12,256
-13,125
-13,995
-14,865
-15,735
-16,606
-17,479
-18,352
-19,228
-20,105
-20,984
-21,866
-22,75
-23,638
-24,528
-25,42
-26,316
-27,215
-28,117
-29,021
-29,929
-30,84
-31,754
-32,671
-33,589
-34,511
-35,434
-36,359
-37,287
-38,218
-39,151
-40,088
-41,028
-41,973
-42,923
-43,879
-44,842
-45,811
-46,788
-47,772
-48,766
-49,768
-50,78
-51,803
-52,837
-53,882
-54,939
-56,009
-57,092
-58,189
-59,301
-60,428
-61,572
-62,732
-63,909
-65,106
-66,322
-67,559
-68,817
-70,097
-71,4
-72,726
-74,075
-75,448
-76,843
-78,261
-79,701
-81,163
-82,645
-84,146
-85,665
-87,201
-88,751
-90,315
-91,891
-93,475
-95,066
-96,662
-98,259
-99,856
-101,448
-103,034
-104,609
-106,171
-107,715
-109,238
-110,735
-112,203
-113,637
-115,032
-116,383
-117,686
-118,936
-120,129
-121,26
-122,324
-123,318
-124,238
-125,08
-125,841
-126,517
-127,106
-127,604
-128,011
-128,323
-128,539
-128,659
-128,68
-128,604
-128,429
-128,157
-127,787
-127,322
-126,762
-126,11
-125,367
-124,537
-123,624
-122,63
-121,561
-120,42
-119,214
-117,949
-116,629
-115,263
-113,856
-112,415
-110,947
-109,459
-107,958
-106,451
-104,946
-103,45
-101,97
-100,513
-99,085
-97,695
-96,347
-95,048
-93,805
-92,621
-91,504
-90,456
-89,484
-88,591
-87,781
-87,057
-86,423
-85,881
-85,433
-85,079
-84,822
-84,661
-84,594
-84,622
-84,742
-84,951
-85,248
-85,629
-86,091
-86,629
-87,24
-87,917
-88,657
-89,452
-90,298
-91,188
-92,116
-93,075
-94,058
-95,059
-96,072
-97,09
-98,106
-99,113
-100,104
-101,073
-102,012
-102,915
-103,774
-104,583
-105,336
-106,027
-106,65
-107,201
-107,675
-108,068
-108,375
-108,595
-108,723
-108,758
-108,696
-108,537
-108,28
-107,925
-107,471
-106,921
-106,275
-105,536
-104,706
-103,788
-102,784
-101,7
-100,54
-99,308
-98,01
-96,653
-95,243
-93,79
-92,304
-90,793
-89,268
-87,741
-86,223
-84,727
-83,263
-81,844
-80,48
-79,183
-77,964
-76,835
-75,807
-74,891
-74,099
-73,441
-72,928
-72,573
-72,385
-72,373
-72,544
-72,903
-73,454
-74,204
-75,16
-76,33
-77,714
-79,315
-81,131
-83,156
-85,381
-87,791
-90,355
-93,041
-95,811
-98,632
-101,474
-104,307
-107,1
-109,818
-112,422
-114,875
-117,145
-119,206
-121,035
-122,616
-123,95
-125,051
-125,968
-126,774
-127,538
-128,333
-129,211
-130,207
-131,364
-132,745
-134,413
-136,44
-138,891
-141,788
-145,176
-149,112
-153,533
-158,288
-163,103
-167,529
-171,178
-173,75
-174,873
-174,252
-171,879
-167,889
-162,687
-156,966
-151,128
-145,423
-140,243
-135,632
-131,122
-125,912
-118,622
-107,574
-91,651
-69,911
-41,244
-5,212
37,91
87,156
140,363
194,789
248,09
297,828
341,246
376,204
400,965
414,304
416,426
408,322
390,9
365,37
333,209
295,452
253,379
208,636
162,157
114,539
66,642
19,38
-25,989
-67,435
-103,217
-132,483
-154,5
-168,752
-175,201
-174,173
-166,724
-154,941
-141,022
-126,434
-112,253
-99,245
-87,852
-78,354
-70,63
-63,92
-57,288
-50,261
-42,731
-34,822
-26,822
-18,968
-11,532
-4,958
0,27
3,904
5,92
6,448
5,729
3,963
1,308
-2,024
-5,791
-9,782
-13,815
-17,752
-21,499
-24,936
-27,912
-30,316
-32,069
-33,135
-33,526
-33,265
-32,377
-30,906
-28,909
-26,453
-23,616
-20,47
-17,075
-13,495
-9,79
-6,033
-2,307
1,322
4,811
8,134
11,283
14,251
17,035
19,642
22,091
24,405
26,605
28,709
30,729
32,683
34,593
36,484
38,387
40,326
42,317
44,372
46,502
48,717
51,026
53,432
55,936
58,538
61,242
64,053
66,978
70,021
73,184
76,47
79,879
83,414
87,077
90,87
94,793
98,848
103,036
107,357
111,814
116,405
121,128
125,98
130,958
136,056
141,269
146,59
152,011
157,524
163,119
168,788
174,519
180,299
186,117
191,958
197,808
203,652
209,474
215,257
220,986
226,644
232,216
237,684
243,03
248,239
253,294
258,177
262,87
267,354
271,61
275,62
279,366
282,832
286,002
288,859
291,388
293,575
295,408
296,876
297,966
298,663
298,951
298,822
298,275
297,311
295,932
294,141
291,942
289,343
286,357
282,996
279,264
275,156
270,669
265,809
260,589
255,032
249,161
242,994
236,536
229,797
222,79
215,531
208,034
200,302
192,332
184,14
175,762
167,258
158,685
150,089
141,504
132,954
124,467
116,083
107,844
99,788
91,943
84,342
77,023
70,042
63,456
57,301
51,578
46,261
41,326
36,763
32,57
28,747
25,287
22,174
19,395
16,944
14,822
13,017
11,507
10,252
9,208
8,351
7,676
7,2
6,931
6,868
7,002
7,325
7,834
8,524
9,384
10,39
11,518
12,751
14,08
15,504
17,024
18,63
20,305
22,024
23,766
25,514
27,255
28,974
30,652
32,276
33,84
35,342
36,783
38,161
39,47
40,706
41,862
42,938
43,935
44,853
45,694
46,459
47,152
47,777
48,339
48,844
49,295
49,692
50,039
50,338
50,594
50,808
50,985
51,127
51,236
51,318
51,373
51,405
51,416
51,407
51,378
51,331
51,265
51,18
51,077
50,955
50,814
50,653
50,472
50,27
50,046
49,8
49,531
49,238
48,919
48,575
48,203
47,802
47,373
46,915
46,426
45,908
45,359
44,781
44,173
43,535
42,87
42,176
41,455
40,709
39,938
39,145
38,331
37,5
36,652
35,791
34,919
34,039
33,152
32,262
31,37
30,479
29,591
28,708
27,832
26,965
26,109
25,267
24,439
23,627
22,834
22,059
21,303
20,569
19,856
19,164
18,494
17,847
17,222
16,619
16,038
15,478
14,939
14,419
13,918
13,434
12,965
12,511
12,069
11,638
11,217
10,804
10,396
9,994
9,594
9,195
8,795
8,393
7,986
7,572
7,149
6,716
6,271
5,81
5,334
4,84
4,326
3,79
3,232
2,649
2,039
1,402
0,737
0,041
-0,685
-1,444
-2,234
-3,058
-3,914
-4,805
-5,729
-6,688
-7,681
-8,708
-9,769
-10,864
-11,993
-13,155
-14,349
-15,575
-16,831
-18,117
-19,431
-20,772
-22,138
-23,527
-24,939
-26,37
-27,819
-29,285
-30,765
-32,257
-33,759
-35,269
-36,785
-38,306
-39,829
-41,353
-42,876
-44,397
-45,914
-47,426
-48,931
-50,427
-51,915
-53,391
-54,856
-56,307
-57,743
-59,164
-60,568
-61,954
-63,322
-64,67
-65,998
-67,305
-68,59
-69,854
-71,095
-72,313
-73,508
-74,678
-75,823
-76,943
-78,037
-79,104
-80,143
-81,153
-82,132
-83,078
-83,992
-84,87
-85,71
-86,512
-87,272
-87,989
-88,661
-89,285
-89,86
-90,383
-90,853
-91,267
-91,623
-91,92
-92,156
-92,328
-92,436
-92,478
-92,451
-92,355
-92,189
-91,951
-91,64
-91,256
-90,798
-90,267
-89,662
-88,983
-88,233
-87,411
-86,52
-85,561
-84,537
-83,45
-82,304
-81,101
-79,845
-78,54
-77,19
-75,8
-74,373
-72,913
-71,426
-69,917
-68,388
-66,846
-65,295
-63,739
-62,184
-60,634
-59,094
-57,568
-56,061
-54,578
-53,123
-51,7
-50,313
-48,965
-47,66
-46,401
-45,192
-44,035
-42,932
-41,885
-40,896
-39,966
-39,096
-38,287
-37,539
-36,852
-36,226
-35,661
-35,157
-34,713
-34,329
-34,004
-33,737
-33,528
-33,376
-33,28
-33,238
-33,251
-33,316
-33,432
-33,599
-33,815
-34,078
-34,389
-34,744
-35,144
-35,587
-36,071
-36,595
-37,159
-37,761
-38,401
-39,077
-39,788
-40,535
-41,317
-42,132
-42,98
-43,861
-44,772
-45,714
-46,686
-47,685
-48,711
-49,761
-50,836
-51,931
-53,047
-54,18
-55,33
-56,493
-57,667
-58,852
-60,043
-61,241
-62,441
-63,643
-64,844
-66,043
-67,238
-68,426
-69,606
-70,777
-71,936
-73,082
-74,213
-75,327
-76,423
-77,499
-78,554
-79,587
-80,597
-81,583
-82,545
-83,481
-84,392
-85,278
-86,139
-86,974
-87,785
-88,571
-89,334
-90,072
-90,788
-91,48
-92,148
-92,794
-93,415
-94,012
-94,584
-95,13
-95,647
-96,136
-96,592
-97,016
-97,403
-97,753
-98,061
-98,326
-98,543
-98,712
-98,827
-98,885
-98,883
-98,818
-98,684
-98,478
-98,196
-97,833
-97,385
-96,847
-96,214
-95,483
-94,65
-93,71
-92,661
-91,499
-90,222
-88,828
-87,317
-85,686
-83,937
-82,071
-80,089
-77,994
-75,79
-73,481
-71,071
-68,567
-65,975
-63,302
-60,556
-57,744
-54,876
-51,961
-49,008
-46,03
-43,037
-40,041
-37,057
-34,098
-31,179
-28,316
-25,525
-22,82
-20,219
-17,736
-15,385
-13,18
-11,132
-9,255
-7,56
-6,058
-4,761
-3,679
-2,819
-2,188
-1,793
-1,635
-1,715
-2,031
-2,581
-3,364
-4,382
-5,639
-7,133
-8,863
-10,822
-12,999
-15,377
-17,932
-20,63
-23,435
-26,307
-29,208
-32,105
-34,963
-37,746
-40,413
-42,913
-45,196
-47,22
-48,947
-50,348
-51,411
-52,144
-52,576
-52,766
-52,777
-52,665
-52,499
-52,346
-52,281
-52,398
-52,789
-53,534
-54,739
-56,53
-58,961
-61,995
-65,475
-69,101
-72,57
-75,629
-77,98
-79,243
-79,208
-77,932
-75,738
-73,27
-71,101
-69,444
-68,455
-68,383
-69,138
-70,125
-70,228
-67,664
-60,636
-48,018
-28,884
-2,203
32,563
75,283
124,989
179,414
235,733
291,522
344,38
391,573
430,576
459,115
475,514
479,597
472,13
453,921
425,878
389,186
345,221
295,839
243,127
188,424
132,483
76,089
20,497
-32,474
-80,875
-123,13
-158,291
-185,467
-203,53
-211,534
-209,575
-198,978
-181,83
-160,632
-137,514
-114,359
-93,411
-76,806
-65,759
-60,53
-60,5
-64,252
-70,493
-78,021
-85,225
-90,663
-93,429
-93,022
-89,572
-83,786
-76,342
-67,996
-59,745
-52,311
-46,141
-41,545
-38,493
-36,759
-36,133
-36,287
-36,814
-37,493
-38,206
-38,9
-39,618
-40,371
-41,127
-41,881
-42,629
-43,333
-43,936
-44,35
-44,49
-44,319
-43,832
-43,051
-42
-40,685
-39,104
-37,262
-35,166
-32,839
-30,304
-27,583
-24,706
-21,712
-18,654
-15,591
-12,567
-9,608
-6,721
-3,903
-1,147
1,548
4,191
6,792
9,364
11,918
14,465
17,012
19,573
22,166
24,817
27,554
30,4
33,37
36,476
39,726
43,127
46,683
50,396
54,261
58,276
62,442
66,757
71,223
75,838
80,597
85,499
90,538
95,712
101,017
106,45
112,008
117,688
123,488
129,404
135,432
141,566
147,801
154,131
160,556
167,071
173,664
180,325
187,038
193,786
200,554
207,315
214,038
220,692
227,247
233,682
239,986
246,145
252,147
257,976
263,618
269,067
274,328
279,403
284,288
288,983
293,485
297,811
301,991
306,047
309,99
313,819
317,51
321,04
324,388
327,518
330,388
332,941
335,104
336,823
338,059
338,77
338,919
338,459
337,325
335,471
332,871
329,508
325,382
320,498
314,864
308,513
301,496
293,876
285,724
277,098
268,04
258,597
248,811
238,728
228,393
217,847
207,119
196,244
185,269
174,233
163,18
152,141
141,134
130,188
119,336
108,614
98,062
87,721
77,629
67,839
58,417
49,421
40,905
32,903
25,428
18,493
12,107
6,267
0,965
-3,826
-8,152
-12,05
-15,547
-18,675
-21,463
-23,958
-26,225
-28,316
-30,271
-32,122
-33,885
-35,58
-37,228
-38,833
-40,385
-41,864
-43,238
-44,487
-45,607
-46,594
-47,445
-48,153
-48,702
-49,089
-49,32
-49,402
-49,344
-49,154
-48,835
-48,404
-47,883
-47,299
-46,683
-46,056
-45,434
-44,828
-44,25
-43,709
-43,215
-42,77
-42,373
-42,023
-41,721
-41,469
-41,27
-41,124
-41,025
-40,971
-40,957
-40,98
-41,037
-41,125
-41,242
-41,384
-41,55
-41,74
-41,954
-42,19
-42,447
-42,722
-43,012
-43,314
-43,625
-43,942
-44,262
-44,581
-44,898
-45,21
-45,515
-45,814
-46,103
-46,383
-46,652
-46,912
-47,16
-47,398
-47,624
-47,84
-48,045
-48,24
-48,425
-48,602
-48,77
-48,93
-49,084
-49,232
-49,374
-49,511
-49,644
-49,773
-49,899
-50,023
-50,146
-50,269
-50,392
-50,518
-50,646
-50,778
-50,915
-51,057
-51,205
-51,359
-51,519
-51,685
-51,856
-52,032
-52,213
-52,398
-52,587
-52,777
-52,969
-53,162
-53,354
-53,543
-53,729
-53,91
-54,086
-54,253
-54,412
-54,562
-54,7
-54,826
-54,939
-55,038
-55,122
-55,19
-55,242
-55,276
-55,292
-55,289
-55,266
-55,224
-55,162
-55,08
-54,978
-54,856
-54,716
-54,558
-54,382
-54,189
-53,982
-53,76
-53,526
-53,281
-53,026
-52,765
-52,498
-52,227
-51,956
-51,685
-51,416
-51,152
-50,894
-50,645
-50,404
-50,175
-49,958
-49,754
-49,565
-49,392
-49,236
-49,098
-48,977
-48,876
-48,795
-48,733
-48,691
-48,67
-48,668
-48,686
-48,724
-48,78
-48,855
-48,947
-49,055
-49,179
-49,316
-49,466
-49,627
-49,797
-49,975
-50,159
-50,348
-50,54
-50,733
-50,927
-51,12
-51,312
-51,5
-51,686
-51,867
-52,043
-52,214
-52,38
-52,539
-52,691
-52,837
-52,975
-53,106
-53,23
-53,346
-53,454
-53,554
-53,645
-53,729
-53,805
-53,872
-53,932
-53,984
-54,029
-54,066
-54,097
-54,122
-54,14
-54,153
-54,161
-54,163
-54,161
-54,152
-54,139
-54,119
-54,092
-54,059
-54,019
-53,97
-53,912
-53,846
-53,769
-53,683
-53,585
-53,477
-53,357
-53,226
-53,083
-52,929
-52,765
-52,589
-52,403
-52,208
-52,004
-51,791
-51,571
-51,343
-51,11
-50,871
-50,627
-50,379
-50,128
-49,876
-49,623
-49,371
-49,12
-48,873
-48,631
-48,395
-48,166
-47,948
-47,739
-47,543
-47,361
-47,194
-47,042
-46,908
-46,791
-46,693
-46,613
-46,552
-46,51
-46,486
-46,481
-46,493
-46,522
-46,567
-46,627
-46,701
-46,789
-46,889
-47
-47,121
-47,252
-47,39
-47,536
-47,686
-47,842
-48
-48,16
-48,32
-48,48
-48,638
-48,793
-48,944
-49,089
-49,228
-49,359
-49,483
-49,598
-49,705
-49,802
-49,89
-49,969
-50,039
-50,1
-50,154
-50,199
-50,237
-50,269
-50,294
-50,314
-50,328
-50,338
-50,343
-50,343
-50,34
-50,332
-50,321
-50,305
-50,286
-50,262
-50,233
-50,201
-50,164
-50,122
-50,076
-50,024
-49,968
-49,906
-49,839
-49,766
-49,687
-49,601
-49,51
-49,411
-49,307
-49,195
-49,077
-48,953
-48,822
-48,686
-48,545
-48,4
-48,251
-48,1
-47,949
-47,797
-47,648
-47,503
-47,364
-47,233
-47,112
-47,002
-46,907
-46,827
-46,765
-46,723
-46,703
-46,705
-46,731
-46,783
-46,861
-46,967
-47,099
-47,259
-47,446
-47,66
-47,899
-48,161
-48,446
-48,75
-49,071
-49,406
-49,751
-50,102
-50,455
-50,806
-51,149
-51,479
-51,791
-52,08
-52,338
-52,561
-52,742
-52,874
-52,953
-52,97
-52,921
-52,799
-52,598
-52,315
-51,942
-51,477
-50,914
-50,252
-49,486
-48,615
-47,638
-46,554
-45,362
-44,066
-42,666
-41,165
-39,568
-37,879
-36,104
-34,249
-32,322
-30,33
-28,281
-26,185
-24,052
-21,893
-19,717
-17,537
-15,365
-13,215
-11,101
-9,039
-7,043
-5,13
-3,314
-1,612
-0,04
1,389
2,663
3,77
4,699
5,438
5,976
6,302
6,408
6,287
5,933
5,341
4,507
3,432
2,119
0,573
-1,202
-3,203
-5,437
-7,905
-10,604
-13,526
-16,66
-19,991
-23,498
-27,153
-30,917
-34,746
-38,6
-42,436
-46,223
-49,929
-53,51
-56,917
-60,091
-62,975
-65,528
-67,719
-69,522
-70,94
-71,981
-72,679
-73,1
-73,303
-73,36
-73,353
-73,354
-73,445
-73,725
-74,276
-75,222
-76,725
-78,841
-81,536
-84,67
-87,951
-91,13
-94,034
-96,378
-97,784
-98,035
-97,118
-95,381
-93,518
-91,988
-90,897
-90,269
-90,17
-90,593
-91,127
-90,647
-87,383
-79,727
-66,61
-47,365
-21,381
12,076
53,153
101,004
153,749
208,921
264,173
317,434
366,493
408,72
441,791
463,986
474,461
473,526
461,863
440,188
409,46
370,956
326,11
276,614
224,123
169,656
114,066
58,331
3,777
-47,731
-94,245
-134,205
-166,485
-190,075
-204,152
-208,209
-202,648
-189,045
-169,655
-146,933
-123,107
-100,157
-79,886
-63,886
-53,041
-47,301
-45,84
-47,354
-50,519
-54,088
-57,027
-58,47
-57,844
-55,042
-50,416
-44,629
-38,467
-32,744
-27,985
-24,504
-22,505
-21,974
-22,768
-24,653
-27,258
-30,149
-33,057
-35,83
-38,369
-40,654
-42,62
-44,185
-45,319
-46,036
-46,349
-46,269
-45,795
-44,912
-43,639
-42,023
-40,117
-37,98
-35,646
-33,134
-30,467
-27,677
-24,808
-21,912
-19,039
-16,219
-13,47
-10,81
-8,246
-5,779
-3,403
-1,097
1,163
3,399
5,628
7,861
10,105
12,374
14,687
17,064
19,528
22,099
24,788
27,608
30,569
33,679
36,939
40,351
43,91
47,614
51,464
55,46
59,605
63,9
68,345
72,938
77,678
82,56
87,582
92,739
98,027
103,44
108,974
114,624
120,386
126,258
132,234
138,311
144,481
150,735
157,066
163,464
169,92
176,423
182,96
189,519
196,09
202,663
209,234
215,792
222,322
228,803
235,212
241,527
247,727
253,788
259,681
265,383
270,876
276,149
281,204
286,034
290,625
294,959
299,007
302,751
306,184
309,301
312,099
314,579
316,736
318,579
320,132
321,397
322,366
323,011
323,278
323,132
322,553
321,526
320,051
318,118
315,707
312,806
309,406
305,497
301,07
296,1
290,546
284,394
277,657
270,373
262,613
254,432
245,869
236,966
227,757
218,284
208,593
198,722
188,7
178,564
168,357
158,137
147,979
137,937
128,042
118,31
108,733
99,313
90,066
81,001
72,128
63,458
55,001
46,775
38,81
31,124
23,729
16,627
9,807
3,27
-2,975
-8,916
-14,532
-19,811
-24,745
-29,324
-33,54
-37,388
-40,869
-43,988
-46,759
-49,196
-51,306
-53,099
-54,582
-55,763
-56,658
-57,281
-57,646
-57,771
-57,671
-57,364
-56,869
-56,204
-55,386
-54,43
-53,35
-52,159
-50,872
-49,503
-48,066
-46,573
-45,039
-43,474
-41,894
-40,308
-38,728
-37,164
-35,625
-34,118
-32,652
-31,232
-29,865
-28,556
-27,31
-26,13
-25,02
-23,982
-23,019
-22,131
-21,32
-20,585
-19,927
-19,345
-18,838
-18,403
-18,041
-17,749
-17,525
-17,367
-17,273
-17,241
-17,268
-17,353
-17,493
-17,684
-17,925
-18,213
-18,545
-18,918
-19,33
-19,78
-20,263
-20,78
-21,328
-21,904
-22,508
-23,139
-23,793
-24,47
-25,169
-25,887
-26,625
-27,38
-28,151
-28,937
-29,738
-30,551
-31,375
-32,21
-33,052
-33,902
-34,756
-35,613
-36,472
-37,33
-38,185
-39,036
-39,882
-40,719
-41,547
-42,364
-43,167
-43,954
-44,724
-45,475
-46,204
-46,91
-47,59
-48,243
-48,867
-49,461
-50,021
-50,548
-51,04
-51,494
-51,911
-52,289
-52,627
-52,924
-53,181
-53,397
-53,573
-53,709
-53,805
-53,863
-53,884
-53,868
-53,816
-53,731
-53,613
-53,464
-53,286
-53,081
-52,85
-52,595
-52,32
-52,025
-51,714
-51,388
-51,051
-50,704
-50,351
-49,993
-49,633
-49,275
-48,92
-48,571
-48,231
-47,902
-47,587
-47,288
-47,007
-46,745
-46,506
-46,291
-46,1
-45,936
-45,801
-45,694
-45,619
-45,575
-45,564
-45,586
-45,643
-45,735
-45,862
-46,025
-46,224
-46,457
-46,727
-47,031
-47,37
-47,742
-48,147
-48,584
-49,051
-49,547
-50,069
-50,616
-51,186
-51,776
-52,384
-53,008
-53,645
-54,292
-54,946
-55,605
-56,266
-56,924
-57,578
-58,223
-58,857
-59,476
-60,077
-60,657
-61,212
-61,741
-62,238
-62,703
-63,131
-63,521
-63,87
-64,176
-64,437
-64,651
-64,817
-64,934
-65,001
-65,017
-64,982
-64,897
-64,761
-64,575
-64,34
-64,058
-63,728
-63,354
-62,937
-62,48
-61,984
-61,453
-60,89
-60,297
-59,678
-59,037
-58,376
-57,7
-57,011
-56,314
-55,613
-54,911
-54,211
-53,518
-52,835
-52,165
-51,512
-50,878
-50,267
-49,68
-49,121
-48,591
-48,093
-47,628
-47,198
-46,804
-46,447
-46,129
-45,849
-45,608
-45,407
-45,244
-45,12
-45,035
-44,986
-44,974
-44,998
-45,055
-45,144
-45,264
-45,413
-45,589
-45,79
-46,013
-46,257
-46,518
-46,794
-47,084
-47,384
-47,693
-48,008
-48,326
-48,646
-48,965
-49,282
-49,594
-49,899
-50,196
-50,483
-50,759
-51,021
-51,27
-51,503
-51,719
-51,918
-52,099
-52,261
-52,403
-52,525
-52,627
-52,709
-52,77
-52,811
-52,834
-52,837
-52,823
-52,791
-52,745
-52,683
-52,609
-52,524
-52,429
-52,326
-52,217
-52,103
-51,987
-51,871
-51,756
-51,643
-51,535
-51,433
-51,339
-51,254
-51,179
-51,116
-51,065
-51,028
-51,006
-50,999
-51,009
-51,034
-51,077
-51,136
-51,213
-51,305
-51,414
-51,538
-51,676
-51,827
-51,99
-52,163
-52,343
-52,53
-52,72
-52,912
-53,103
-53,291
-53,473
-53,646
-53,81
-53,961
-54,098
-54,219
-54,322
-54,406
-54,47
-54,513
-54,535
-54,534
-54,511
-54,467
-54,4
-54,312
-54,205
-54,078
-53,933
-53,773
-53,598
-53,412
-53,216
-53,013
-52,806
-52,598
-52,392
-52,192
-52,001
-51,822
-51,66
-51,516
-51,395
-51,3
-51,232
-51,194
-51,188
-51,216
-51,277
-51,374
-51,505
-51,67
-51,868
-52,097
-52,354
-52,637
-52,942
-53,266
-53,604
-53,952
-54,303
-54,654
-54,997
-55,325
-55,634
-55,914
-56,159
-56,361
-56,513
-56,608
-56,637
-56,593
-56,469
-56,258
-55,954
-55,55
-55,041
-54,421
-53,688
-52,836
-51,865
-50,772
-49,557
-48,22
-46,763
-45,189
-43,501
-41,703
-39,802
-37,803
-35,715
-33,547
-31,308
-29,008
-26,659
-24,275
-21,868
-19,455
-17,052
-14,673
-12,338
-10,061
-7,863
-5,758
-3,764
-1,895
-0,166
1,407
2,809
4,027
5,045
5,85
6,432
6,781
6,887
6,745
6,352
5,709
4,817
3,676
2,281
0,629
-1,278
-3,437
-5,84
-8,474
-11,322
-14,358
-17,547
-20,852
-24,235
-27,661
-31,101
-34,525
-37,9
-41,187
-44,336
-47,3
-50,032
-52,496
-54,656
-56,495
-58,015
-59,236
-60,205
-60,973
-61,577
-62,062
-62,477
-62,876
-63,327
-63,904
-64,673
-65,733
-67,219
-69,191
-71,624
-74,373
-77,14
-79,641
-81,66
-82,936
-83,143
-82,102
-79,861
-76,808
-73,695
-71,117
-69,301
-68,324
-68,246
-68,993
-70,084
-70,378
-68,073
-61,478
-49,484
-31,441
-6,848
24,856
63,756
109,042
158,93
211,132
263,519
314,34
361,847
403,718
437,679
461,943
475,397
477,899
469,721
450,943
421,703
382,963
336,174
283,085
225,748
165,672
104,027
42,573
-16,364
-70,639
-118,229
-157,43
-187,374
-207,155
-215,83
-213,523
-201,498
-181,608
-156,437
-128,82
-101,046
-75,492
-54,499
-39,382
-30,536
-27,662
-29,516
-34,447
-40,972
-47,388
-52,156
-54,458
-53,912
-50,599
-45,184
-38,494
-31,372
-24,817
-19,56
-15,922
-14,071
-13,926
-15,191
-17,559
-20,637
-23,953
-27,201
-30,209
-32,839
-35,023
-36,717
-37,866
-38,476
-38,598
-38,248
-37,439
-36,178
-34,473
-32,364
-29,913
-27,175
-24,201
-21,041
-17,739
-14,359
-10,977
-7,65
-4,418
-1,305
1,68
4,525
7,222
9,774
12,198
14,516
16,748
18,913
21,024
23,098
25,155
27,219
29,32
31,479
33,71
36,025
38,434
40,945
43,566
46,3
49,145
52,103
55,175
58,364
61,678
65,118
68,688
72,387
76,216
80,174
84,263
88,483
92,834
97,314
101,926
106,668
111,543
116,551
121,691
126,961
132,358
137,878
143,516
149,269
155,131
161,102
167,175
173,342
179,593
185,915
192,292
198,705
205,133
211,548
217,924
224,236
230,46
236,576
242,566
248,411
254,096
259,597
264,901
270,004
274,905
279,609
284,123
288,454
292,619
296,64
300,536
304,321
308
311,565
315,003
318,294
321,413
324,337
327,033
329,446
331,519
333,184
334,373
335,031
335,095
334,486
333,14
331,002
328,032
324,218
319,56
314,066
307,759
300,663
292,817
284,289
275,16
265,515
255,443
245,014
234,304
223,418
212,451
201,486
190,6
179,836
169,234
158,834
148,665
138,757
129,126
119,77
110,673
101,827
93,224
84,871
76,775
68,912
61,262
53,814
46,56
39,514
32,691
26,091
19,719
13,583
7,694
2,071
-3,264
-8,301
-13,036
-17,471
-21,614
-25,453
-28,974
-32,179
-35,067
-37,651
-39,944
-41,948
-43,67
-45,121
-46,317
-47,274
-48,012
-48,541
-48,869
-49,007
-48,963
-48,755
-48,402
-47,916
-47,31
-46,598
-45,789
-44,899
-43,944
-42,931
-41,871
-40,772
-39,641
-38,49
-37,33
-36,168
-35,012
-33,869
-32,745
-31,645
-30,574
-29,539
-28,541
-27,585
-26,674
-25,811
-25
-24,244
-23,546
-22,906
-22,327
-21,811
-21,358
-20,969
-20,645
-20,386
-20,191
-20,061
-19,994
-19,991
-20,05
-20,171
-20,351
-20,591
-20,887
-21,238
-21,643
-22,099
-22,605
-23,157
-23,753
-24,391
-25,069
-25,782
-26,529
-27,306
-28,11
-28,939
-29,788
-30,655
-31,537
-32,431
-33,332
-34,239
-35,149
-36,057
-36,963
-37,862
-38,753
-39,632
-40,498
-41,349
-42,181
-42,993
-43,782
-44,547
-45,287
-45,998
-46,681
-47,334
-47,957
-48,547
-49,106
-49,633
-50,128
-50,592
-51,025
-51,427
-51,801
-52,147
-52,467
-52,762
-53,034
-53,285
-53,518
-53,733
-53,933
-54,119
-54,295
-54,461
-54,62
-54,774
-54,924
-55,073
-55,223
-55,374
-55,53
-55,692
-55,862
-56,04
-56,228
-56,428
-56,64
-56,866
-57,106
-57,36
-57,628
-57,911
-58,208
-58,519
-58,843
-59,179
-59,525
-59,882
-60,246
-60,617
-60,992
-61,371
-61,75
-62,129
-62,506
-62,878
-63,245
-63,603
-63,953
-64,291
-64,617
-64,929
-65,226
-65,506
-65,769
-66,014
-66,239
-66,445
-66,63
-66,796
-66,94
-67,064
-67,167
-67,251
-67,315
-67,361
-67,389
-67,401
-67,398
-67,382
-67,354
-67,315
-67,268
-67,215
-67,158
-67,098
-67,037
-66,977
-66,919
-66,866
-66,819
-66,779
-66,747
-66,724
-66,712
-66,71
-66,72
-66,741
-66,774
-66,818
-66,874
-66,94
-67,016
-67,1
-67,193
-67,292
-67,396
-67,505
-67,615
-67,726
-67,835
-67,94
-68,04
-68,132
-68,214
-68,283
-68,338
-68,376
-68,395
-68,393
-68,369
-68,32
-68,246
-68,144
-68,014
-67,854
-67,663
-67,442
-67,189
-66,905
-66,59
-66,244
-65,869
-65,466
-65,035
-64,579
-64,099
-63,597
-63,075
-62,536
-61,981
-61,414
-60,836
-60,251
-59,662
-59,072
-58,483
-57,899
-57,323
-56,756
-56,203
-55,666
-55,147
-54,649
-54,174
-53,724
-53,302
-52,91
-52,549
-52,221
-51,927
-51,667
-51,443
-51,255
-51,102
-50,985
-50,902
-50,853
-50,837
-50,852
-50,897
-50,97
-51,069
-51,191
-51,335
-51,498
-51,677
-51,869
-52,072
-52,283
-52,499
-52,717
-52,936
-53,152
-53,363
-53,566
-53,759
-53,939
-54,105
-54,254
-54,384
-54,492
-54,579
-54,641
-54,678
-54,689
-54,674
-54,633
-54,564
-54,469
-54,348
-54,202
-54,032
-53,838
-53,623
-53,389
-53,136
-52,868
-52,587
-52,294
-51,993
-51,686
-51,374
-51,061
-50,749
-50,439
-50,135
-49,838
-49,552
-49,278
-49,018
-48,775
-48,551
-48,347
-48,167
-48,012
-47,882
-47,781
-47,709
-47,666
-47,655
-47,675
-47,728
-47,813
-47,93
-48,08
-48,262
-48,474
-48,717
-48,988
-49,288
-49,613
-49,964
-50,337
-50,732
-51,147
-51,579
-52,028
-52,491
-52,965
-53,45
-53,942
-54,438
-54,938
-55,437
-55,933
-56,423
-56,905
-57,375
-57,83
-58,268
-58,685
-59,078
-59,443
-59,778
-60,079
-60,343
-60,566
-60,746
-60,88
-60,964
-60,997
-60,974
-60,894
-60,755
-60,554
-60,288
-59,955
-59,554
-59,083
-58,539
-57,92
-57,226
-56,456
-55,609
-54,684
-53,682
-52,602
-51,446
-50,214
-48,907
-47,528
-46,078
-44,561
-42,979
-41,337
-39,638
-37,888
-36,092
-34,255
-32,384
-30,485
-28,566
-26,632
-24,693
-22,756
-20,828
-18,92
-17,038
-15,194
-13,396
-11,656
-9,985
-8,394
-6,894
-5,497
-4,213
-3,054
-2,029
-1,147
-0,413
0,162
0,573
0,811
0,868
0,739
0,418
-0,099
-0,814
-1,728
-2,841
-4,147
-5,639
-7,314
-9,168
-11,205
-13,427
-15,828
-18,403
-21,14
-24,026
-27,044
-30,167
-33,363
-36,595
-39,83
-43,039
-46,2
-49,289
-52,274
-55,112
-57,754
-60,15
-62,268
-64,076
-65,554
-66,695
-67,504
-68,006
-68,253
-68,286
-68,152
-67,906
-67,591
-67,271
-67,032
-66,948
-67,14
-67,767
-68,873
-70,426
-72,3
-74,219
-75,954
-77,371
-78,207
-78,142
-77,114
-75,247
-73,006
-71,207
-70,297
-70,314
-71,303
-73,252
-75,809
-78,329
-79,48
-77,292
-70,436
-58,229
-40,153
-15,981
14,294
50,403
91,137
134,44
178,652
222,381
264,221
303,006
337,381
365,855
387,448
401,585
407,578
404,947
393,402
372,598
342,529
303,807
257,572
205,504
149,641
92,011
34,776
-19,633
-68,547
-109,784
-142,318
-165,971
-181,05
-188,131
-188,056
-182,157
-172,556
-161,241
-149,106
-136,681
-124,355
-112,478
-101,628
-92,045
-83,246
-74,871
-67,31
-60,911
-55,907
-52,279
-49,397
-46,834
-44,632
-42,704
-40,652
-38,201
-35,163
-31,612
-28,116
-25,054
-22,499
-20,551
-19,29
-18,729
-18,881
-19,62
-20,619
-21,656
-22,634
-23,464
-24,125
-24,588
-24,8
-24,739
-24,418
-23,838
-22,993
-21,887
-20,516
-18,891
-17,039
-14,976
-12,718
-10,282
-7,681
-4,934
-2,056
0,933
4,009
7,136
10,265
13,359
16,396
19,364
22,264
25,1
27,872
30,589
33,267
35,918
38,551
41,176
43,794
46,415
49,054
51,729
54,469
57,292
60,214
63,247
66,396
69,67
73,072
76,604
80,261
84,04
87,942
91,966
96,118
100,397
104,802
109,332
113,984
118,755
123,644
128,648
133,763
138,987
144,316
149,747
155,278
160,907
166,627
172,433
178,318
184,275
190,296
196,37
202,488
208,637
214,806
220,981
227,148
233,295
239,404
245,46
251,446
257,347
263,146
268,826
274,371
279,762
284,983
290,016
294,843
299,446
303,804
307,898
311,706
315,211
318,392
321,232
323,714
325,821
327,539
328,855
329,756
330,23
330,265
329,846
328,96
327,605
325,78
323,489
320,743
317,551
313,925
309,883
305,442
300,611
295,398
289,802
283,822
277,466
270,749
263,694
256,328
248,663
240,715
232,496
224,01
215,266
206,269
197,01
187,495
177,748
167,804
157,724
147,577
137,416
127,287
117,227
107,268
97,45
87,819
78,408
69,264
60,432
51,962
43,923
36,37
29,327
22,798
16,761
11,171
6,002
1,233
-3,159
-7,185
-10,866
-14,223
-17,268
-20,017
-22,496
-24,738
-26,798
-28,722
-30,533
-32,242
-33,841
-35,306
-36,628
-37,803
-38,821
-39,684
-40,395
-40,958
-41,391
-41,71
-41,925
-42,039
-42,049
-41,946
-41,738
-41,437
-41,059
-40,629
-40,167
-39,688
-39,214
-38,758
-38,33
-37,938
-37,583
-37,263
-36,976
-36,727
-36,517
-36,352
-36,233
-36,157
-36,125
-36,133
-36,179
-36,258
-36,365
-36,497
-36,648
-36,818
-37,004
-37,205
-37,422
-37,651
-37,892
-38,142
-38,4
-38,665
-38,932
-39,201
-39,47
-39,736
-40
-40,26
-40,516
-40,767
-41,015
-41,258
-41,499
-41,737
-41,973
-42,209
-42,445
-42,683
-42,923
-43,168
-43,418
-43,674
-43,939
-44,212
-44,496
-44,79
-45,096
-45,415
-45,747
-46,093
-46,453
-46,827
-47,215
-47,616
-48,032
-48,463
-48,906
-49,363
-49,833
-50,314
-50,807
-51,31
-51,822
-52,341
-52,866
-53,396
-53,93
-54,465
-55
-55,533
-56,065
-56,592
-57,113
-57,629
-58,136
-58,635
-59,125
-59,604
-60,071
-60,527
-60,971
-61,402
-61,82
-62,225
-62,617
-62,995
-63,36
-63,713
-64,052
-64,379
-64,694
-64,997
-65,289
-65,57
-65,84
-66,102
-66,354
-66,598
-66,834
-67,063
-67,286
-67,503
-67,714
-67,92
-68,12
-68,315
-68,505
-68,69
-68,869
-69,043
-69,21
-69,371
-69,526
-69,673
-69,813
-69,944
-70,066
-70,179
-70,283
-70,376
-70,458
-70,529
-70,589
-70,638
-70,675
-70,7
-70,713
-70,714
-70,702
-70,679
-70,643
-70,595
-70,536
-70,466
-70,386
-70,296
-70,197
-70,091
-69,977
-69,858
-69,735
-69,608
-69,48
-69,351
-69,223
-69,098
-68,976
-68,86
-68,75
-68,648
-68,555
-68,471
-68,398
-68,335
-68,283
-68,243
-68,215
-68,199
-68,194
-68,201
-68,219
-68,248
-68,287
-68,336
-68,393
-68,459
-68,53
-68,608
-68,69
-68,775
-68,862
-68,949
-69,035
-69,119
-69,198
-69,271
-69,336
-69,391
-69,434
-69,464
-69,48
-69,479
-69,461
-69,425
-69,37
-69,294
-69,199
-69,082
-68,944
-68,785
-68,604
-68,403
-68,181
-67,938
-67,676
-67,395
-67,096
-66,78
-66,446
-66,097
-65,732
-65,352
-64,959
-64,553
-64,135
-63,706
-63,268
-62,822
-62,369
-61,911
-61,449
-60,984
-60,519
-60,054
-59,59
-59,13
-58,673
-58,222
-57,778
-57,341
-56,912
-56,493
-56,084
-55,686
-55,299
-54,923
-54,56
-54,209
-53,872
-53,549
-53,241
-52,949
-52,674
-52,416
-52,177
-51,957
-51,756
-51,576
-51,417
-51,278
-51,161
-51,064
-50,988
-50,933
-50,898
-50,883
-50,886
-50,908
-50,946
-51
-51,069
-51,151
-51,245
-51,35
-51,465
-51,588
-51,718
-51,855
-51,997
-52,141
-52,288
-52,436
-52,582
-52,726
-52,865
-52,997
-53,122
-53,238
-53,344
-53,438
-53,52
-53,59
-53,646
-53,689
-53,718
-53,735
-53,74
-53,734
-53,718
-53,693
-53,662
-53,626
-53,588
-53,549
-53,512
-53,479
-53,452
-53,433
-53,425
-53,428
-53,446
-53,479
-53,53
-53,6
-53,69
-53,803
-53,939
-54,099
-54,283
-54,493
-54,727
-54,985
-55,267
-55,57
-55,892
-56,232
-56,586
-56,952
-57,324
-57,7
-58,075
-58,443
-58,801
-59,141
-59,459
-59,748
-60,004
-60,219
-60,389
-60,507
-60,569
-60,568
-60,5
-60,361
-60,145
-59,85
-59,472
-59,008
-58,454
-57,81
-57,074
-56,246
-55,324
-54,311
-53,209
-52,02
-50,747
-49,396
-47,97
-46,477
-44,923
-43,314
-41,66
-39,969
-38,249
-36,512
-34,767
-33,025
-31,299
-29,599
-27,939
-26,332
-24,79
-23,327
-21,955
-20,687
-19,534
-18,508
-17,618
-16,873
-16,281
-15,851
-15,589
-15,503
-15,598
-15,879
-16,351
-17,017
-17,878
-18,934
-20,18
-21,61
-23,221
-25,007
-26,969
-29,103
-31,402
-33,858
-36,461
-39,195
-42,04
-44,966
-47,933
-50,899
-53,826
-56,675
-59,42
-62,03
-64,471
-66,705
-68,691
-70,394
-71,788
-72,853
-73,572
-73,939
-73,969
-73,713
-73,248
-72,656
-72,01
-71,361
-70,765
-70,29
-70,009
-70,009
-70,37
-71,135
-72,361
-74,116
-76,387
-79,093
-82,057
-84,939
-87,418
-89,234
-90,058
-89,634
-87,925
-85
-81,14
-76,842
-72,396
-67,988
-63,933
-60,278
-56,645
-52,398
-46,49
-37,669
-25,141
-8,243
13,938
41,863
75,372
113,745
155,372
198,233
240,694
281,046
316,999
346,41
367,411
378,595
379,695
371,023
352,649
324,782
288,317
244,562
195,418
143,054
89,02
34,578
-18,59
-68,351
-112,561
-149,378
-177,883
-197,97
-209,603
-212,705
-207,631
-195,735
-179,16
-160,378
-141,395
-123,38
-107,163
-93,688
-83,844
-77,715
-74,548
-72,979
-71,632
-69,834
-67,347
-63,845
-58,868
-52,281
-44,412
-36,069
-28,263
-21,538
-16,026
-11,798
-8,958
-7,573
-7,585
-8,698
-10,411
-12,368
-14,413
-16,462
-18,468
-20,339
-21,923
-23,115
-23,904
-24,294
-24,284
-23,874
-23,031
-21,746
-20,059
-18,027
-15,717
-13,192
-10,488
-7,628
-4,651
-1,605
1,449
4,438
7,323
10,081
12,698
15,164
17,471
19,615
21,611
23,489
25,276
26,994
28,659
30,279
31,872
33,461
35,072
36,735
38,472
40,298
42,228
44,278
46,46
48,784
51,254
53,867
56,624
59,528
62,582
65,789
69,152
72,668
76,339
80,164
84,146
88,283
92,577
97,026
101,632
106,394
111,313
116,385
121,608
126,979
132,494
138,154
143,955
149,886
155,939
162,098
168,348
174,676
181,056
187,461
193,861
200,229
206,545
212,799
218,98
225,072
231,062
236,932
242,675
248,299
253,802
259,181
264,436
269,566
274,585
279,524
284,404
289,236
294,019
298,725
303,333
307,822
312,16
316,31
320,22
323,816
327,041
329,852
332,204
334,054
335,343
335,991
335,936
335,138
333,573
331,243
328,151
324,301
319,719
314,452
308,562
302,136
295,242
287,931
280,256
272,272
264,043
255,658
247,183
238,667
230,154
221,674
213,256
204,934
196,72
188,609
180,586
172,622
164,705
156,839
149,025
141,267
133,563
125,906
118,296
110,75
103,279
95,896
88,614
81,441
74,395
67,503
60,794
54,299
48,041
42,034
36,291
30,823
25,639
20,746
16,146
11,836
7,813
4,075
0,621
-2,55
-5,443
-8,068
-10,431
-12,545
-14,416
-16,055
-17,47
-18,672
-19,67
-20,472
-21,088
-21,525
-21,793
-21,901
-21,862
-21,687
-21,387
-20,974
-20,459
-19,855
-19,173
-18,424
-17,62
-16,769
-15,883
-14,971
-14,043
-13,108
-12,174
-11,249
-10,342
-9,46
-8,61
-7,797
-7,027
-6,305
-5,636
-5,025
-4,473
-3,984
-3,561
-3,205
-2,919
-2,702
-2,555
-2,478
-2,47
-2,53
-2,657
-2,848
-3,1
-3,411
-3,777
-4,195
-4,662
-5,174
-5,726
-6,316
-6,937
-7,588
-8,262
-8,956
-9,665
-10,386
-11,115
-11,846
-12,578
-13,305
-14,026
-14,736
-15,434
-16,116
-16,781
-17,426
-18,05
-18,651
-19,228
-19,779
-20,305
-20,805
-21,278
-21,724
-22,145
-22,539
-22,908
-23,253
-23,575
-23,874
-24,153
-24,412
-24,653
-24,878
-25,089
-25,287
-25,474
-25,652
-25,823
-25,989
-26,15
-26,309
-26,467
-26,625
-26,785
-26,946
-27,111
-27,28
-27,453
-27,632
-27,816
-28,005
-28,201
-28,403
-28,611
-28,824
-29,044
-29,268
-29,498
-29,732
-29,97
-30,212
-30,456
-30,702
-30,949
-31,196
-31,443
-31,687
-31,928
-32,166
-32,398
-32,624
-32,843
-33,055
-33,257
-33,45
-33,633
-33,805
-33,965
-34,114
-34,249
-34,372
-34,48
-34,575
-34,656
-34,722
-34,773
-34,809
-34,831
-34,838
-34,829
-34,806
-34,768
-34,715
-34,648
-34,568
-34,473
-34,366
-34,247
-34,116
-33,975
-33,823
-33,662
-33,493
-33,317
-33,134
-32,946
-32,753
-32,556
-32,357
-32,156
-31,955
-31,755
-31,556
-31,361
-31,168
-30,981
-30,799
-30,624
-30,456
-30,296
-30,144
-30,002
-29,87
-29,748
-29,637
-29,536
-29,446
-29,367
-29,298
-29,24
-29,191
-29,152
-29,122
-29,1
-29,085
-29,077
-29,075
-29,078
-29,085
-29,094
-29,105
-29,116
-29,126
-29,134
-29,139
-29,14
-29,134
-29,122
-29,102
-29,074
-29,035
-28,987
-28,928
-28,857
-28,775
-28,682
-28,577
-28,46
-28,333
-28,194
-28,046
-27,889
-27,723
-27,55
-27,371
-27,187
-26,999
-26,809
-26,618
-26,428
-26,24
-26,056
-25,877
-25,705
-25,542
-25,389
-25,248
-25,12
-25,007
-24,909
-24,829
-24,766
-24,722
-24,697
-24,692
-24,707
-24,741
-24,795
-24,868
-24,96
-25,069
-25,196
-25,338
-25,495
-25,666
-25,849
-26,043
-26,246
-26,457
-26,674
-26,895
-27,12
-27,345
-27,57
-27,794
-28,014
-28,229
-28,439
-28,641
-28,834
-29,018
-29,191
-29,353
-29,502
-29,638
-29,762
-29,872
-29,97
-30,055
-30,128
-30,189
-30,24
-30,28
-30,31
-30,332
-30,346
-30,352
-30,353
-30,348
-30,338
-30,325
-30,309
-30,29
-30,27
-30,248
-30,226
-30,203
-30,179
-30,155
-30,131
-30,107
-30,084
-30,061
-30,038
-30,016
-29,994
-29,973
-29,951
-29,93
-29,908
-29,886
-29,863
-29,839
-29,814
-29,788
-29,762
-29,736
-29,71
-29,686
-29,664
-29,644
-29,63
-29,621
-29,62
-29,628
-29,647
-29,679
-29,727
-29,793
-29,879
-29,988
-30,121
-30,281
-30,47
-30,69
-30,942
-31,227
-31,548
-31,904
-32,297
-32,727
-33,195
-33,7
-34,243
-34,821
-35,434
-36,081
-36,758
-37,464
-38,195
-38,948
-39,718
-40,502
-41,295
-42,091
-42,885
-43,671
-44,443
-45,195
-45,919
-46,608
-47,257
-47,858
-48,405
-48,889
-49,306
-49,649
-49,911
-50,087
-50,173
-50,164
-50,055
-49,844
-49,527
-49,102
-48,567
-47,922
-47,166
-46,3
-45,325
-44,244
-43,059
-41,775
-40,396
-38,928
-37,376
-35,749
-34,054
-32,3
-30,494
-28,648
-26,771
-24,874
-22,97
-21,07
-19,186
-17,332
-15,522
-13,77
-12,088
-10,492
-8,994
-7,608
-6,345
-5,216
-4,231
-3,4
-2,731
-2,234
-1,916
-1,785
-1,85
-2,115
-2,585
-3,266
-4,156
-5,255
-6,559
-8,064
-9,768
-11,672
-13,776
-16,075
-18,563
-21,233
-24,071
-27,062
-30,176
-33,378
-36,629
-39,893
-43,135
-46,332
-49,455
-52,474
-55,355
-58,056
-60,541
-62,782
-64,753
-66,434
-67,815
-68,9
-69,73
-70,372
-70,895
-71,362
-71,814
-72,29
-72,851
-73,561
-74,5
-75,755
-77,371
-79,412
-81,956
-84,992
-88,433
-92,094
-95,635
-98,746
-101,197
-102,697
-103,006
-102,12
-100,186
-97,594
-94,885
-92,333
-90,025
-88,1
-86,554
-85,027
-82,76
-78,532
-71,075
-59,584
-43,585
-22,648
3,613
35,192
71,34
110,559
151,093
191,313
229,856
265,336
295,899
319,737
335,553
342,597
340,675
329,924
310,311
281,891
245,541
202,572
154,65
103,748
51,485
-0,7
-50,97
-97,323
-138,006
-171,477
-196,985
-214,573
-224,302
-226,466
-221,812
-211,335
-196,653
-179,82
-162,423
-145,631
-130,434
-117,404
-107,07
-100,028
-96,057
-94,343
-94,11
-94,466
-94,841
-95,123
-94,978
-93,88
-91,783
-88,943
-85,792
-83,071
-81,15
-80,016
-79,762
-80,507
-82,231
-84,863
-88,126
-91,529
-94,761
-97,696
-100,234
-102,344
-103,97
-105,028
-105,517
-105,51
-105,065
-104,23
-103,035
-101,476
-99,587
-97,432
-95,082
-92,625
-90,133
-87,653
-85,223
-82,877
-80,645
-78,555
-76,62
-74,838
-73,2
-71,7
-70,33
-69,087
-67,958
-66,921
-65,95
-65,013
-64,079
-63,124
-62,129
-61,077
-59,956
-58,751
-57,456
-56,063
-54,574
-52,985
-51,289
-49,48
-47,55
-45,495
-43,311
-40,994
-38,541
-35,948
-33,212
-30,328
-27,294
-24,107
-20,763
-17,257
-13,582
-9,73
-5,697
-1,483
2,907
7,469
12,19
17,058
22,052
27,144
32,311
37,53
42,78
48,046
53,309
58,548
63,739
68,853
73,865
78,757
83,513
88,123
92,594
96,937
101,18
105,369
109,544
113,742
117,997
122,326
126,746
131,276
135,932
140,738
145,715
150,871
156,213
161,729
167,38
173,109
178,835
184,435
189,793
194,787
199,288
203,199
206,418
208,842
210,375
210,907
210,327
208,54
205,457
201,011
195,183
187,982
179,462
169,739
158,936
147,202
134,707
121,591
108,029
94,241
80,462
66,975
54,066
