Lead,Lead I
459,674
425,311
413,182
396,365
410,726
419,278
417,708
421,441
427,032
426,343
419,129
407,565
394,032
381,142
369,802
360,042
352,198
346,164
341,461
337,753
334,811
332,406
330,45
328,619
326,162
322,642
318,049
312,493
306,156
299,199
291,681
283,849
276,23
269,16
262,758
257,047
251,907
247,243
243,048
239,243
235,645
232,132
228,623
225,063
221,47
217,842
214,13
210,294
206,314
202,177
197,888
193,463
188,908
184,239
179,474
174,631
169,732
164,801
159,855
154,911
149,99
145,107
140,293
135,583
131,006
126,584
122,33
118,249
114,347
110,63
107,093
103,722
100,502
97,423
94,477
91,667
88,994
86,462
84,073
81,831
79,734
77,778
75,946
74,211
72,543
70,903
69,267
67,623
65,957
64,258
62,512
60,703
58,808
56,803
54,656
52,326
49,786
47,017
44,022
40,824
37,456
33,966
30,393
26,772
23,131
19,494
15,882
12,316
8,821
5,419
2,144
-0,962
-3,862
-6,528
-8,942
-11,105
-13,033
-14,753
-16,293
-17,682
-18,942
-20,09
-21,145
-22,117
-23,012
-23,832
-24,576
-25,248
-25,86
-26,423
-26,949
-27,448
-27,911
-28,327
-28,686
-28,97
-29,167
-29,267
-29,249
-29,109
-28,854
-28,505
-28,099
-27,676
-27,268
-26,897
-26,58
-26,336
-26,188
-26,163
-26,282
-26,57
-27,054
-27,765
-28,752
-30,05
-31,677
-33,637
-35,916
-38,493
-41,355
-44,497
-47,912
-51,594
-55,531
-59,709
-64,118
-68,749
-73,585
-78,593
-83,721
-88,916
-94,131
-99,327
-104,468
-109,517
-114,418
-119,114
-123,549
-127,673
-131,443
-134,822
-137,774
-140,261
-142,256
-143,759
-144,792
-145,402
-145,649
-145,589
-145,291
-144,841
-144,349
-143,951
-143,784
-143,976
-144,651
-145,915
-147,885
-150,714
-154,52
-159,335
-165,101
-171,647
-178,746
-186,185
-193,701
-200,937
-207,584
-213,444
-218,547
-223,163
-227,621
-232,38
-237,838
-244,194
-251,639
-259,381
-266,14
-271,336
-273,648
-272,838
-268,97
-258,924
-240,597
-211,672
-169,96
-119,057
-62,657
-4,36
51,142
103,278
151,501
194,241
231,199
260,953
282,21
295,016
299,308
295,065
282,739
262,579
234,648
199,302
157,118
108,838
55,759
-0,351
-57,843
-114,885
-169,307
-219,073
-262,328
-297,56
-324,132
-342,114
-351,674
-353,291
-348,008
-337,155
-322,404
-305,544
-287,817
-270,058
-253,255
-238,411
-226,25
-217,261
-211,381
-208,119
-207,191
-208,412
-211,297
-215,148
-219,175
-222,589
-225,042
-226,578
-227,188
-226,879
-225,793
-224,167
-222,4
-220,962
-220,046
-219,596
-219,507
-219,624
-219,81
-219,963
-219,899
-219,395
-218,341
-216,739
-214,661
-212,229
-209,534
-206,622
-203,552
-200,391
-197,199
-194,021
-190,881
-187,777
-184,697
-181,64
-178,609
-175,608
-172,626
-169,634
-166,582
-163,423
-160,121
-156,649
-152,986
-149,11
-144,997
-140,632
-136,016
-131,155
-126,065
-120,754
-115,22
-109,464
-103,484
-97,285
-90,882
-84,287
-77,506
-70,55
-63,427
-56,154
-48,753
-41,245
-33,645
-25,964
-18,21
-10,391
-2,528
5,36
13,249
21,11
28,919
36,653
44,288
51,807
59,206
66,488
73,67
80,784
87,852
94,89
101,912
108,917
115,905
122,873
129,811
136,712
143,567
150,362
157,076
163,677
170,103
176,276
182,097
187,438
192,178
196,204
199,398
201,669
202,936
203,128
202,187
200,062
196,697
192,039
186,051
178,714
170,053
160,126
149,02
136,862
123,791
109,953
95,512
80,615
65,403
50,014
34,579
19,231
4,124
-10,576
-24,717
-38,151
-50,772
-62,509
-73,312
-83,174
-92,102
-100,124
-107,29
-113,646
-119,236
-124,11
-128,318
-131,918
-134,995
-137,652
-139,995
-142,134
-144,154
-146,118
-148,075
-150,052
-152,061
-154,1
-156,157
-158,213
-160,254
-162,267
-164,239
-166,152
-167,977
-169,669
-171,185
-172,474
-173,498
-174,236
-174,673
-174,805
-174,64
-174,188
-173,473
-172,52
-171,352
-169,991
-168,458
-166,771
-164,956
-163,042
-161,057
-159,035
-157,003
-154,98
-152,984
-151,03
-149,126
-147,28
-145,495
-143,769
-142,104
-140,502
-138,964
-137,493
-136,091
-134,758
-133,491
-132,29
-131,154
-130,08
-129,067
-128,114
-127,22
-126,382
-125,6
-124,872
-124,196
-123,57
-122,991
-122,454
-121,955
-121,491
-121,058
-120,651
-120,266
-119,899
-119,547
-119,206
-118,875
-118,548
-118,225
-117,902
-117,578
-117,251
-116,92
-116,584
-116,242
-115,893
-115,536
-115,172
-114,8
-114,42
-114,032
-113,637
-113,235
-112,828
-112,415
-111,998
-111,578
-111,155
-110,73
-110,305
-109,88
-109,456
-109,034
-108,615
-108,199
-107,788
-107,38
-106,978
-106,58
-106,186
-105,797
-105,411
-105,028
-104,647
-104,265
-103,884
-103,499
-103,111
-102,718
-102,318
-101,908
-101,488
-101,055
-100,607
-100,142
-99,66
-99,157
-98,633
-98,086
-97,515
-96,918
-96,296
-95,647
-94,971
-94,267
-93,536
-92,778
-91,993
-91,18
-90,342
-89,478
-88,59
-87,679
-86,746
-85,792
-84,819
-83,829
-82,823
-81,803
-80,771
-79,729
-78,679
-77,623
-76,564
-75,502
-74,441
-73,382
-72,327
-71,278
-70,236
-69,202
-68,178
-67,164
-66,161
-65,17
-64,19
-63,223
-62,267
-61,322
-60,388
-59,463
-58,549
-57,642
-56,743
-55,851
-54,965
-54,083
-53,206
-52,332
-51,461
-50,592
-49,725
-48,858
-47,991
-47,124
-46,257
-45,39
-44,521
-43,653
-42,783
-41,914
-41,046
-40,179
-39,315
-38,454
-37,598
-36,748
-35,907
-35,075
-34,256
-33,451
-32,662
-31,893
-31,145
-30,42
-29,72
-29,047
-28,403
-27,789
-27,206
-26,655
-26,137
-25,652
-25,201
-24,782
-24,395
-24,04
-23,714
-23,415
-23,143
-22,893
-22,665
-22,454
-22,257
-22,071
-21,892
-21,717
-21,54
-21,358
-21,164
-20,955
-20,724
-20,466
-20,175
-19,847
-19,475
-19,055
-18,581
-18,049
-17,455
-16,793
-16,062
-15,256
-14,373
-13,41
-12,367
-11,24
-10,031
-8,739
-7,364
-5,91
-4,378
-2,771
-1,091
0,658
2,471
4,344
6,272
8,25
10,271
12,329
14,415
16,521
18,638
20,756
22,863
24,949
27,003
29,013
30,972
32,868
34,691
36,43
38,074
39,612
41,036
42,332
43,488
44,492
45,335
46,01
46,514
46,843
46,989
46,945
46,702
46,255
45,594
44,706
43,576
42,186
40,531
38,613
36,442
34,029
31,38
28,5
25,395
22,081
18,578
14,906
11,086
7,145
3,123
-0,918
-4,9
-8,751
-12,41
-15,839
-19,006
-21,879
-24,427
-26,621
-28,438
-29,881
-30,953
-31,65
-31,984
-31,979
-31,687
-31,207
-30,648
-30,119
-29,729
-29,569
-29,729
-30,309
-31,381
-33,027
-35,35
-38,375
-42,085
-46,395
-51,066
-55,838
-60,467
-64,601
-67,847
-69,939
-70,718
-70,306
-69,214
-67,929
-66,853
-66,393
-66,797
-68,101
-70,096
-71,966
-72,228
-69,329
-61,719
-47,952
-26,986
1,985
39,397
84,845
137,015
194,154
254,079
314,345
372,671
426,629
473,751
511,978
539,884
556,416
560,884
553,2
533,439
501,93
460,392
410,838
354,211
292,466
226,405
156,449
87,141
22,325
-33,888
-76,908
-107,828
-128,229
-139,479
-144,202
-141,826
-132,259
-116,979
-97,181
-75,536
-54,388
-35,084
-19,007
-6,863
1,118
4,994
5,455
3,413
-0,344
-4,878
-9,273
-12,721
-14,477
-14,264
-12,269
-8,821
-4,317
0,764
5,979
10,834
14,813
17,692
19,491
20,328
20,416
19,956
19,108
18,072
17,071
16,24
15,653
15,338
15,284
15,504
16,039
16,921
18,165
19,774
21,735
24,035
26,669
29,627
32,89
36,435
40,229
44,237
48,423
52,747
57,158
61,595
65,983
70,248
74,341
78,233
81,916
85,388
88,648
91,707
94,587
97,324
99,963
102,55
105,134
107,78
110,57
113,599
116,967
120,759
125,03
129,825
135,167
141,07
147,537
154,549
162,068
170,047
178,44
187,191
196,242
205,512
214,893
224,277
233,559
242,65
251,485
260,01
268,183
275,977
283,391
290,442
297,161
303,573
309,687
315,513
321,06
326,352
331,423
336,303
341,01
345,552
349,922
354,102
358,057
361,733
365,039
367,869
370,11
371,659
372,44
372,389
371,445
369,559
366,685
362,788
357,843
351,831
344,731
336,546
327,298
317,032
305,835
293,813
281,081
267,767
253,984
239,835
225,423
210,837
196,16
181,473
166,86
152,416
138,248
124,451
111,108
98,29
86,045
74,412
63,411
53,038
43,287
34,151
25,622
17,7
10,389
3,681
-2,44
-8,004
-13,06
-17,653
-21,833
-25,653
-29,163
-32,42
-35,465
-38,317
-40,987
-43,483
-45,815
-47,997
-50,046
-51,968
-53,767
-55,444
-56,992
-58,409
-59,685
-60,805
-61,75
-62,493
-63,022
-63,335
-63,442
-63,354
-63,085
-62,647
-62,054
-61,327
-60,486
-59,548
-58,53
-57,445
-56,31
-55,146
-53,976
-52,824
-51,71
-50,649
-49,649
-48,72
-47,867
-47,095
-46,405
-45,795
-45,263
-44,81
-44,435
-44,139
-43,923
-43,783
-43,717
-43,72
-43,788
-43,917
-44,103
-44,342
-44,628
-44,956
-45,325
-45,729
-46,165
-46,629
-47,117
-47,624
-48,144
-48,675
-49,212
-49,749
-50,283
-50,81
-51,327
-51,83
-52,317
-52,785
-53,231
-53,653
-54,05
-54,418
-54,758
-55,066
-55,342
-55,585
-55,794
-55,968
-56,108
-56,213
-56,285
-56,323
-56,33
-56,307
-56,253
-56,172
-56,064
-55,931
-55,773
-55,593
-55,392
-55,171
-54,931
-54,673
-54,399
-54,11
-53,807
-53,491
-53,164
-52,825
-52,477
-52,119
-51,754
-51,382
-51,004
-50,621
-50,235
-49,845
-49,454
-49,061
-48,666
-48,271
-47,875
-47,478
-47,08
-46,681
-46,279
-45,876
-45,47
-45,062
-44,65
-44,234
-43,815
-43,392
-42,965
-42,534
-42,1
-41,662
-41,221
-40,777
-40,33
-39,881
-39,43
-38,978
-38,525
-38,072
-37,618
-37,164
-36,711
-36,258
-35,807
-35,357
-34,91
-34,466
-34,025
-33,589
-33,159
-32,736
-32,321
-31,914
-31,518
-31,132
-30,758
-30,397
-30,049
-29,714
-29,393
-29,088
-28,798
-28,525
-28,268
-28,025
-27,797
-27,584
-27,384
-27,198
-27,024
-26,862
-26,711
-26,572
-26,445
-26,33
-26,226
-26,132
-26,044
-25,962
-25,889
-25,826
-25,773
-25,73
-25,696
-25,673
-25,66
-25,66
-25,67
-25,687
-25,71
-25,735
-25,763
-25,796
-25,838
-25,888
-25,936
-25,971
-25,98
-25,961
-25,928
-25,884
-25,831
-25,768
-25,679
-25,574
-25,498
-25,441
-25,344
-25,154
-24,798
-24,279
-23,723
-23,184
-22,618
-22,1
-21,776
-21,777
-22,332
-23,48
-24,943
-26,591
-28,429
-30,26
-31,868
-33,065
-33,482
-33,004
-31,946
-30,415
-28,399
-26,182
-23,974
-21,93
-20,418
-19,572
-19,171
-19,218
-19,773
-20,567
-21,449
-22,328
-22,946
-23,218
-23,234
-22,903
-22,132
-21,082
-19,83
-18,413
-16,962
-15,493
-13,984
-12,521
-11,166
-9,861
-8,586
-7,323
-6,031
-4,735
-3,45
-2,142
-0,792
0,6
2,042
3,531
5,078
6,728
8,514
10,459
12,574
14,842
17,249
19,782
22,413
25,111
27,826
30,493
33,059
35,483
37,72
39,732
41,463
42,838
43,801
44,305
44,321
43,842
42,861
41,38
39,421
37,022
34,241
31,149
27,803
24,243
20,511
16,645
12,693
8,721
4,775
0,895
-2,877
-6,506
-9,959
-13,202
-16,232
-19,066
-21,726
-24,236
-26,6
-28,806
-30,84
-32,696
-34,353
-35,771
-36,946
-37,907
-38,742
-39,619
-40,688
-42,031
-43,75
-45,951
-48,6
-51,574
-54,622
-57,27
-59,133
-59,994
-59,567
-57,619
-54,221
-49,575
-44,139
-38,793
-34,237
-30,993
-29,811
-31,321
-35,758
-43,211
-53,298
-65,01
-77,477
-89,728
-100,221
-107,339
-109,572
-105,35
-93,575
-73,752
-45,334
-8,192
36,909
88,679
145,324
204,459
263,648
320,562
372,533
416,998
451,937
475,801
487,598
487,049
474,327
449,817
414,52
369,95
317,855
260,184
199,096
136,653
74,791
15,694
-38,591
-86,437
-126,539
-158,056
-180,806
-194,916
-200,65
-198,931
-191,18
-178,945
-163,918
-147,652
-131,263
-115,749
-102,209
-91,333
-83,258
-77,773
-74,326
-72,286
-71,214
-70,639
-69,838
-68,146
-65,256
-61,172
-56,168
-50,631
-44,856
-39,112
-33,832
-29,487
-26,331
-24,424
-23,651
-23,774
-24,595
-25,949
-27,609
-29,331
-30,938
-32,297
-33,349
-34,093
-34,507
-34,564
-34,244
-33,521
-32,39
-30,863
-28,953
-26,681
-24,076
-21,171
-18,004
-14,618
-11,048
-7,331
-3,493
0,448
4,473
8,566
12,712
16,893
21,101
25,343
29,624
33,95
38,333
42,78
47,303
51,922
56,645
61,48
66,434
71,514
76,721
82,054
87,499
93,033
98,629
104,261
109,908
115,557
121,195
126,817
132,424
138,024
143,633
149,269
154,933
160,63
166,364
172,15
178,013
184,001
190,153
196,512
203,121
210,008
217,193
224,683
232,459
240,483
248,7
257,045
265,465
273,903
282,294
290,567
298,641
306,418
313,801
320,684
326,945
332,471
337,153
340,893
343,614
345,257
345,789
345,198
343,477
340,629
336,667
331,607
325,468
318,281
310,08
300,904
290,821
279,899
268,217
255,872
242,958
229,575
215,813
201,742
187,424
172,921
158,291
143,598
128,921
114,336
99,929
85,803
72,046
58,746
45,983
33,806
22,246
11,317
1,026
-8,615
-17,588
-25,884
-33,496
-40,427
-46,699
-52,337
-57,382
-61,908
-65,989
-69,71
-73,161
-76,404
-79,483
-82,429
-85,261
-87,995
-90,651
-93,242
-95,774
-98,257
-100,692
-103,08
-105,416
-107,675
-109,824
-111,826
-113,635
-115,221
-116,571
-117,676
-118,54
-119,172
-119,58
-119,78
-119,794
-119,637
-119,326
-118,875
-118,298
-117,615
-116,85
-116,029
-115,181
-114,329
-113,491
-112,68
-111,905
-111,173
-110,488
-109,849
-109,252
-108,698
-108,184
-107,712
-107,283
-106,897
-106,552
-106,247
-105,977
-105,74
-105,534
-105,356
-105,204
-105,076
-104,969
-104,882
-104,815
-104,766
-104,734
-104,716
-104,71
-104,712
-104,721
-104,735
-104,75
-104,765
-104,777
-104,786
-104,79
-104,788
-104,781
-104,768
-104,748
-104,723
-104,692
-104,655
-104,614
-104,57
-104,522
-104,471
-104,419
-104,367
-104,316
-104,266
-104,218
-104,175
-104,136
-104,102
-104,075
-104,055
-104,042
-104,038
-104,043
-104,058
-104,082
-104,117
-104,162
-104,219
-104,286
-104,363
-104,451
-104,549
-104,656
-104,772
-104,896
-105,026
-105,161
-105,301
-105,443
-105,585
-105,728
-105,867
-106,003
-106,132
-106,255
-106,368
-106,47
-106,561
-106,639
-106,703
-106,752
-106,785
-106,802
-106,801
-106,784
-106,75
-106,698
-106,629
-106,543
-106,439
-106,319
-106,183
-106,031
-105,863
-105,681
-105,484
-105,273
-105,05
-104,815
-104,569
-104,313
-104,05
-103,779
-103,504
-103,224
-102,942
-102,659
-102,377
-102,097
-101,819
-101,546
-101,278
-101,016
-100,76
-100,511
-100,269
-100,035
-99,808
-99,589
-99,377
-99,173
-98,975
-98,784
-98,6
-98,422
-98,251
-98,087
-97,929
-97,779
-97,637
-97,503
-97,376
-97,259
-97,149
-97,048
-96,956
-96,871
-96,795
-96,727
-96,668
-96,617
-96,575
-96,542
-96,518
-96,504
-96,499
-96,505
-96,521
-96,548
-96,586
-96,636
-96,699
-96,775
-96,864
-96,967
-97,083
-97,212
-97,353
-97,504
-97,663
-97,828
-97,995
-98,163
-98,328
-98,487
-98,638
-98,779
-98,906
-99,018
-99,112
-99,186
-99,235
-99,254
-99,238
-99,184
-99,086
-98,938
-98,735
-98,471
-98,144
-97,751
-97,289
-96,754
-96,139
-95,438
-94,645
-93,76
-92,781
-91,708
-90,544
-89,293
-87,968
-86,585
-85,157
-83,69
-82,187
-80,644
-79,061
-77,437
-75,771
-74,061
-72,305
-70,497
-68,637
-66,728
-64,764
-62,734
-60,619
-58,384
-56,011
-53,497
-50,847
-48,078
-45,213
-42,276
-39,305
-36,345
-33,438
-30,625
-27,939
-25,401
-23,044
-20,91
-19,051
-17,532
-16,4
-15,682
-15,396
-15,548
-16,129
-17,126
-18,506
-20,215
-22,205
-24,438
-26,88
-29,512
-32,309
-35,233
-38,242
-41,287
-44,325
-47,328
-50,273
-53,134
-55,892
-58,531
-61,042
-63,437
-65,726
-67,91
-69,993
-71,964
-73,798
-75,479
-76,985
-78,291
-79,388
-80,255
-80,848
-81,178
-81,295
-81,298
-81,368
-81,646
-82,21
-83,168
-84,573
-86,381
-88,507
-90,667
-92,389
-93,305
-93,082
-91,416
-88,258
-83,707
-77,966
-71,654
-65,607
-60,55
-57,283
-56,543
-58,761
-64,172
-72,67
-82,945
-92,827
-100,555
-104,837
-106,288
-106,857
-106,325
-101,828
-87,659
-57,526
-9,511
52,754
121,475
188,53
249,154
302,588
350,6
394,259
432,848
464,529
487,048
499,212
500,829
491,99
473,044
444,297
406,24
359,918
306,664
248,257
186,823
124,395
63,192
5,669
-45,968
-89,851
-124,453
-149,202
-164,213
-169,67
-166,382
-155,777
-139,413
-119,197
-97,205
-74,864
-53,255
-33,62
-16,722
-2,94
7,362
14,377
18,69
20,646
20,632
19,299
17,043
14,256
11,598
9,448
7,988
7,396
7,649
8,624
10,378
12,908
15,909
19,046
21,955
24,391
26,346
27,827
28,728
28,939
28,52
27,698
26,833
26,188
25,849
25,868
26,319
27,316
28,931
31,106
33,681
36,52
39,56
42,788
46,21
49,796
53,497
57,296
61,201
65,229
69,383
73,639
77,953
82,299
86,672
91,076
95,528
100,036
104,608
109,255
113,99
118,828
123,787
128,878
134,112
139,498
145,047
150,77
156,683
162,791
169,092
175,575
182,216
188,994
195,889
202,879
209,942
217,056
224,194
231,33
238,438
245,492
252,471
259,352
266,114
272,745
279,244
285,625
291,915
298,14
304,315
310,454
316,56
322,635
328,679
334,681
340,625
346,488
352,244
357,868
363,329
368,579
373,546
378,136
382,233
385,724
388,505
390,476
391,539
391,608
390,613
388,505
385,252
380,831
375,216
368,377
360,299
350,996
340,511
328,919
316,313
302,798
288,488
273,513
258,017
242,14
226,005
209,718
193,376
177,079
160,945
145,105
129,68
114,769
100,459
86,817
73,905
61,778
50,461
39,953
30,23
21,264
13,036
5,536
-1,251
-7,354
-12,822
-17,722
-22,114
-26,056
-29,61
-32,841
-35,82
-38,623
-41,3
-43,874
-46,358
-48,758
-51,085
-53,357
-55,58
-57,752
-59,865
-61,903
-63,857
-65,719
-67,471
-69,09
-70,548
-71,808
-72,855
-73,687
-74,308
-74,726
-74,952
-74,994
-74,868
-74,596
-74,198
-73,691
-73,091
-72,411
-71,667
-70,879
-70,071
-69,265
-68,479
-67,724
-67,008
-66,339
-65,719
-65,153
-64,639
-64,173
-63,754
-63,38
-63,052
-62,771
-62,538
-62,35
-62,206
-62,104
-62,042
-62,02
-62,034
-62,085
-62,171
-62,291
-62,445
-62,633
-62,856
-63,112
-63,4
-63,719
-64,067
-64,444
-64,847
-65,275
-65,726
-66,2
-66,694
-67,208
-67,741
-68,292
-68,861
-69,446
-70,046
-70,66
-71,286
-71,925
-72,572
-73,229
-73,891
-74,559
-75,231
-75,904
-76,578
-77,251
-77,922
-78,59
-79,252
-79,909
-80,557
-81,198
-81,828
-82,448
-83,057
-83,655
-84,241
-84,814
-85,376
-85,925
-86,461
-86,985
-87,497
-87,995
-88,482
-88,955
-89,417
-89,868
-90,307
-90,737
-91,157
-91,568
-91,973
-92,37
-92,762
-93,148
-93,53
-93,908
-94,283
-94,656
-95,027
-95,397
-95,767
-96,135
-96,504
-96,871
-97,238
-97,604
-97,967
-98,327
-98,684
-99,036
-99,382
-99,721
-100,053
-100,376
-100,689
-100,991
-101,281
-101,556
-101,816
-102,059
-102,284
-102,489
-102,674
-102,836
-102,976
-103,093
-103,185
-103,254
-103,299
-103,318
-103,313
-103,282
-103,226
-103,146
-103,042
-102,913
-102,763
-102,591
-102,4
-102,191
-101,966
-101,727
-101,476
-101,214
-100,943
-100,665
-100,382
-100,096
-99,808
-99,521
-99,237
-98,958
-98,685
-98,42
-98,164
-97,917
-97,679
-97,449
-97,227
-97,01
-96,798
-96,59
-96,385
-96,181
-95,976
-95,77
-95,563
-95,353
-95,136
-94,91
-94,67
-94,411
-94,13
-93,82
-93,477
-93,094
-92,667
-92,192
-91,668
-91,091
-90,456
-89,759
-88,991
-88,146
-87,225
-86,225
-85,146
-83,991
-82,765
-81,479
-80,15
-78,79
-77,406
-75,999
-74,567
-73,106
-71,617
-70,097
-68,542
-66,949
-65,312
-63,629
-61,902
-60,128
-58,294
-56,383
-54,363
-52,217
-49,944
-47,546
-45,039
-42,444
-39,785
-37,096
-34,422
-31,803
-29,277
-26,876
-24,624
-22,554
-20,704
-19,119
-17,857
-16,957
-16,446
-16,34
-16,647
-17,363
-18,478
-19,97
-21,797
-23,93
-26,335
-28,978
-31,835
-34,875
-38,063
-41,361
-44,723
-48,104
-51,469
-54,789
-58,031
-61,17
-64,175
-67,017
-69,679
-72,141
-74,381
-76,388
-78,136
-79,599
-80,758
-81,586
-82,053
-82,186
-82,03
-81,663
-81,222
-80,815
-80,534
-80,523
-80,9
-81,661
-82,695
-83,741
-84,463
-84,684
-84,327
-83,281
-81,51
-79,129
-76,469
-74,137
-72,77
-72,741
-74,257
-77,477
-82,492
-89,327
-97,734
-107,103
-116,826
-126,338
-135,067
-142,474
-147,823
-150,141
-148,591
-142,477
-131,026
-113,745
-90,334
-60,504
-24,499
16,94
62,863
111,919
162,409
212,737
261,198
305,906
345,259
377,793
402,23
417,778
423,933
420,444
407,463
385,409
354,944
317,197
273,522
225,419
174,689
123,03
72,049
23,491
-21,077
-60,419
-93,513
-119,8
-139,307
-152,173
-158,688
-159,457
-155,221
-146,936
-135,757
-122,684
-108,393
-93,549
-78,908
-65,296
-53,502
-43,911
-36,491
-31,082
-27,598
-25,892
-25,603
-26,021
-26,259
-25,758
-24,355
-22,078
-19,004
-15,216
-10,859
-6,322
-2,18
1,198
3,694
5,339
6,29
6,685
6,609
6,225
5,774
5,416
5,257
5,342
5,635
6,109
6,777
7,638
8,701
9,992
11,511
13,251
15,217
17,396
19,786
22,392
25,199
28,191
31,351
34,659
38,117
41,731
45,494
49,393
53,398
57,474
61,61
65,809
70,064
74,382
78,756
83,184
87,692
92,308
97,057
101,957
107,014
112,224
117,597
123,138
128,855
134,754
140,825
147,055
153,443
159,986
166,681
173,524
180,479
187,505
194,571
201,65
208,724
215,779
222,795
229,761
236,683
243,578
250,466
257,364
264,272
271,182
278,084
284,961
291,809
298,621
305,37
312,028
318,56
324,929
331,099
337,021
342,613
347,774
352,404
356,398
359,669
362,134
363,709
364,329
363,941
362,507
360,008
356,436
351,779
346,027
339,175
331,227
322,219
312,216
301,285
289,512
276,988
263,815
250,113
235,991
221,541
206,849
191,989
177,033
162,072
147,204
132,528
118,156
104,185
90,697
77,774
65,486
53,876
42,971
32,772
23,274
14,481
6,399
-0,97
-7,626
-13,592
-18,903
-23,602
-27,751
-31,42
-34,679
-37,608
-40,286
-42,771
-45,102
-47,305
-49,391
-51,377
-53,28
-55,114
-56,888
-58,605
-60,263
-61,856
-63,374
-64,793
-66,09
-67,231
-68,182
-68,92
-69,439
-69,739
-69,83
-69,726
-69,437
-68,981
-68,379
-67,651
-66,816
-65,892
-64,895
-63,845
-62,766
-61,684
-60,627
-59,614
-58,663
-57,784
-56,984
-56,27
-55,644
-55,107
-54,655
-54,285
-53,998
-53,791
-53,666
-53,621
-53,652
-53,756
-53,928
-54,163
-54,458
-54,806
-55,204
-55,647
-56,13
-56,651
-57,206
-57,791
-58,403
-59,037
-59,688
-60,352
-61,026
-61,704
-62,383
-63,058
-63,727
-64,386
-65,034
-65,666
-66,283
-66,882
-67,462
-68,021
-68,559
-69,075
-69,568
-70,039
-70,487
-70,913
-71,317
-71,701
-72,065
-72,412
-72,742
-73,058
-73,362
-73,655
-73,94
-74,217
-74,489
-74,759
-75,027
-75,295
-75,566
-75,842
-76,122
-76,41
-76,706
-77,012
-77,327
-77,654
-77,991
-78,339
-78,699
-79,07
-79,452
-79,845
-80,249
-80,661
-81,082
-81,51
-81,944
-82,382
-82,822
-83,262
-83,701
-84,136
-84,566
-84,987
-85,398
-85,797
-86,181
-86,548
-86,897
-87,225
-87,531
-87,812
-88,068
-88,296
-88,497
-88,668
-88,809
-88,919
-88,999
-89,048
-89,066
-89,053
-89,01
-88,937
-88,835
-88,706
-88,549
-88,367
-88,162
-87,935
-87,688
-87,424
-87,145
-86,853
-86,552
-86,243
-85,929
-85,614
-85,3
-84,99
-84,688
-84,395
-84,115
-83,85
-83,604
-83,377
-83,173
-82,992
-82,838
-82,712
-82,614
-82,546
-82,509
-82,504
-82,531
-82,591
-82,683
-82,807
-82,962
-83,148
-83,365
-83,609
-83,88
-84,176
-84,495
-84,834
-85,19
-85,56
-85,941
-86,328
-86,719
-87,109
-87,493
-87,868
-88,228
-88,569
-88,886
-89,175
-89,431
-89,65
-89,826
-89,955
-90,033
-90,056
-90,019
-89,918
-89,75
-89,51
-89,196
-88,804
-88,332
-87,777
-87,137
-86,41
-85,595
-84,691
-83,696
-82,611
-81,437
-80,175
-78,826
-77,394
-75,88
-74,288
-72,621
-70,885
-69,084
-67,223
-65,307
-63,341
-61,332
-59,287
-57,212
-55,115
-53,005
-50,89
-48,781
-46,686
-44,617
-42,582
-40,591
-38,651
-36,774
-34,969
-33,244
-31,61
-30,077
-28,655
-27,355
-26,19
-25,166
-24,293
-23,575
-23,014
-22,615
-22,385
-22,329
-22,453
-22,768
-23,281
-24,008
-24,963
-26,148
-27,564
-29,207
-31,064
-33,129
-35,396
-37,852
-40,491
-43,303
-46,27
-49,375
-52,594
-55,883
-59,194
-62,464
-65,623
-68,62
-71,415
-73,969
-76,261
-78,264
-79,951
-81,318
-82,35
-83,034
-83,381
-83,397
-83,106
-82,569
-81,853
-81,046
-80,267
-79,616
-79,184
-79,073
-79,346
-80,088
-81,416
-83,37
-85,947
-89,081
-92,55
-96,128
-99,615
-102,716
-105,095
-106,526
-106,863
-106,236
-105,16
-104,119
-103,531
-103,8
-105,147
-107,588
-110,873
-114,154
-115,96
-114,738
-108,914
-97,042
-78,073
-51,219
-16,169
26,569
75,684
129,443
185,733
242,232
296,722
346,916
390,691
426,37
452,748
468,925
474,389
469,107
453,241
427,292
392,146
348,894
298,849
243,759
185,603
126,283
67,966
12,924
-36,831
-79,434
-113,372
-137,916
-152,841
-158,242
-155,027
-144,746
-129,194
-110,522
-90,899
-72,024
-55,44
-42,478
-33,699
-29,049
-28,094
-29,908
-33,374
-37,55
-41,388
-43,865
-44,461
-43,017
-39,622
-34,706
-28,815
-22,428
-16,137
-10,553
-5,98
-2,543
-0,242
1,1
1,682
1,683
1,366
1,002
0,731
0,628
0,718
0,975
1,414
2,057
2,889
3,895
5,075
6,444
8,044
9,906
12,03
14,403
17,009
19,833
22,876
26,133
29,592
33,242
37,069
41,067
45,241
49,581
54,067
58,665
63,333
68,035
72,744
77,423
82,036
86,555
90,965
95,265
99,47
103,585
107,612
111,554
115,412
119,205
122,96
126,701
130,465
134,297
138,25
142,404
146,837
151,604
156,739
162,254
168,148
174,428
181,1
188,159
195,596
203,39
211,522
219,985
228,761
237,815
247,087
256,488
265,928
275,339
284,666
293,866
302,9
311,711
320,248
328,469
336,33
343,791
350,798
357,275
363,148
368,356
372,848
376,6
379,578
381,734
383,016
383,37
382,748
381,126
378,485
374,799
370,046
364,209
357,282
349,289
340,264
330,248
319,287
307,427
294,739
281,314
267,26
252,692
237,72
222,443
206,956
191,366
175,792
160,357
145,187
130,396
116,086
102,359
89,309
77,015
65,527
54,869
45,039
36,022
27,807
20,381
13,729
7,817
2,597
-1,992
-6,024
-9,573
-12,718
-15,547
-18,153
-20,61
-22,974
-25,279
-27,538
-29,762
-31,96
-34,139
-36,302
-38,446
-40,558
-42,624
-44,626
-46,54
-48,339
-49,985
-51,436
-52,663
-53,652
-54,399
-54,915
-55,209
-55,294
-55,188
-54,912
-54,489
-53,94
-53,286
-52,542
-51,73
-50,873
-49,997
-49,131
-48,296
-47,507
-46,774
-46,106
-45,506
-44,977
-44,518
-44,124
-43,792
-43,519
-43,304
-43,147
-43,045
-42,995
-42,993
-43,034
-43,114
-43,229
-43,376
-43,551
-43,75
-43,97
-44,208
-44,464
-44,734
-45,016
-45,307
-45,603
-45,901
-46,2
-46,496
-46,787
-47,071
-47,348
-47,615
-47,874
-48,123
-48,363
-48,594
-48,817
-49,034
-49,243
-49,448
-49,648
-49,845
-50,041
-50,235
-50,43
-50,627
-50,828
-51,033
-51,243
-51,462
-51,688
-51,925
-52,172
-52,432
-52,705
-52,993
-53,296
-53,615
-53,95
-54,303
-54,674
-55,063
-55,469
-55,892
-56,332
-56,787
-57,257
-57,74
-58,235
-58,742
-59,257
-59,78
-60,31
-60,845
-61,383
-61,924
-62,465
-63,006
-63,544
-64,08
-64,612
-65,138
-65,657
-66,17
-66,673
-67,168
-67,651
-68,123
-68,582
-69,028
-69,459
-69,874
-70,274
-70,657
-71,023
-71,371
-71,701
-72,014
-72,309
-72,586
-72,846
-73,089
-73,314
-73,523
-73,716
-73,892
-74,053
-74,199
-74,33
-74,445
-74,547
-74,634
-74,706
-74,765
-74,809
-74,84
-74,857
-74,861
-74,853
-74,832
-74,8
-74,756
-74,703
-74,639
-74,568
-74,488
-74,401
-74,308
-74,209
-74,106
-73,999
-73,89
-73,778
-73,664
-73,55
-73,437
-73,325
-73,214
-73,107
-73,005
-72,907
-72,816
-72,732
-72,657
-72,592
-72,539
-72,497
-72,469
-72,455
-72,457
-72,475
-72,511
-72,564
-72,635
-72,724
-72,832
-72,958
-73,102
-73,264
-73,443
-73,64
-73,853
-74,081
-74,325
-74,583
-74,854
-75,138
-75,432
-75,737
-76,051
-76,371
-76,697
-77,028
-77,36
-77,694
-78,026
-78,356
-78,681
-78,999
-79,309
-79,608
-79,896
-80,17
-80,429
-80,671
-80,897
-81,104
-81,293
-81,463
-81,614
-81,746
-81,86
-81,956
-82,035
-82,098
-82,145
-82,176
-82,194
-82,199
-82,193
-82,176
-82,152
-82,121
-82,085
-82,047
-82,009
-81,972
-81,939
-81,912
-81,892
-81,883
-81,885
-81,902
-81,935
-81,986
-82,056
-82,148
-82,261
-82,396
-82,553
-82,731
-82,929
-83,145
-83,377
-83,624
-83,881
-84,148
-84,422
-84,7
-84,981
-85,261
-85,54
-85,813
-86,077
-86,328
-86,56
-86,769
-86,948
-87,092
-87,194
-87,249
-87,252
-87,199
-87,086
-86,908
-86,662
-86,34
-85,935
-85,443
-84,861
-84,186
-83,421
-82,568
-81,635
-80,633
-79,577
-78,475
-77,331
-76,15
-74,924
-73,653
-72,331
-70,955
-69,527
-68,047
-66,515
-64,935
-63,308
-61,631
-59,896
-58,084
-56,168
-54,141
-52
-49,754
-47,425
-45,039
-42,627
-40,232
-37,89
-35,636
-33,501
-31,504
-29,663
-28,007
-26,567
-25,39
-24,534
-24,034
-23,92
-24,213
-24,92
-26,044
-27,575
-29,473
-31,696
-34,211
-36,986
-40,007
-43,262
-46,724
-50,355
-54,109
-57,926
-61,76
-65,561
-69,263
-72,799
-76,1
-79,11
-81,815
-84,205
-86,269
-87,986
-89,322
-90,251
-90,773
-90,898
-90,648
-90,049
-89,128
-87,936
-86,556
-85,093
-83,677
-82,423
-81,425
-80,774
-80,552
-80,864
-81,851
-83,595
-86,103
-89,289
-92,937
-96,805
-100,678
-104,263
-107,191
-109,178
-110,034
-109,86
-109,172
-108,514
-108,372
-109,2
-111,28
-114,691
-119,257
-124,172
-127,885
-128,637
-124,57
-113,937
-95,419
-67,981
-31,086
14,915
68,686
128,233
191,016
254,209
315,089
370,938
419,283
458,127
486,11
502,51
507,155
500,49
483,259
456,366
420,924
378,283
329,875
277,185
221,888
165,423
109,171
54,843
4,164
-41,362
-80,367
-111,812
-135,308
-150,604
-157,586
-156,855
-149,448
-136,602
-119,921
-101,073
-81,283
-61,767
-43,912
-28,678
-16,705
-8,424
-3,647
-1,852
-2,693
-5,675
-9,958
-14,777
-19,347
-22,904
-25,205
-26,305
-26,207
-25,055
-23,15
-20,777
-18,354
-16,347
-14,89
-13,944
-13,425
-13,14
-12,922
-12,656
-12,143
-11,177
-9,681
-7,654
-5,163
-2,339
0,734
4,003
7,403
10,885
14,409
17,948
21,507
25,083
28,671
32,259
35,831
39,369
42,878
46,371
49,87
53,406
56,999
60,665
64,417
68,257
72,173
76,137
80,113
84,077
88,02
91,949
95,879
99,825
103,804
107,84
111,964
116,213
120,617
125,196
129,968
134,952
140,179
145,692
151,53
157,717
164,263
171,161
178,398
185,959
193,812
201,909
210,188
218,574
227,009
235,448
243,854
252,199
260,454
268,593
276,598
284,46
292,172
299,731
307,125
314,334
321,347
328,161
334,778
341,201
347,425
353,429
359,18
364,631
369,721
374,371
378,489
381,974
384,731
386,665
387,705
387,797
386,896
384,967
381,982
377,917
372,76
366,502
359,147
350,706
341,218
330,746
319,372
307,196
294,332
280,898
267,005
252,752
238,229
223,516
208,69
193,826
179,003
164,308
149,833
135,679
121,934
108,673
95,954
83,828
72,319
61,434
51,177
41,544
32,538
24,164
16,424
9,318
2,833
-3,054
-8,385
-13,211
-17,594
-21,593
-25,271
-28,693
-31,902
-34,93
-37,795
-40,503
-43,064
-45,493
-47,798
-49,989
-52,071
-54,043
-55,9
-57,636
-59,234
-60,679
-61,945
-63,001
-63,828
-64,414
-64,765
-64,903
-64,85
-64,634
-64,272
-63,774
-63,154
-62,432
-61,625
-60,762
-59,85
-58,861
-57,834
-56,862
-56,022
-55,413
-55,039
-54,771
-54,562
-54,459
-54,388
-54,206
-53,753
-52,766
-51,244
-49,496
-47,689
-45,862
-44,159
-42,718
-41,757
-41,668
-42,474
-43,801
-45,422
-47,199
-48,974
-50,691
-52,18
-53,099
-53,404
-53,351
-53,109
-52,817
-52,569
-52,328
-52,147
-52,188
-52,472
-52,903
-53,409
-53,909
-54,372
-54,844
-55,332
-55,808
-56,267
-56,717
-57,166
-57,637
-58,13
-58,63
-59,125
-59,609
-60,079
-60,539
-60,993
-61,44
-61,879
-62,309
-62,73
-63,142
-63,545
-63,942
-64,331
-64,714
-65,09
-65,461
-65,83
-66,197
-66,562
-66,925
-67,283
-67,635
-67,98
-68,318
-68,648
-68,97
-69,282
-69,585
-69,876
-70,157
-70,427
-70,684
-70,928
-71,159
-71,376
-71,579
-71,767
-71,941
-72,099
-72,242
-72,37
-72,481
-72,577
-72,655
-72,718
-72,763
-72,791
-72,802
-72,797
-72,774
-72,735
-72,681
-72,61
-72,526
-72,427
-72,315
-72,191
-72,056
-71,91
-71,756
-71,594
-71,425
-71,25
-71,071
-70,889
-70,704
-70,518
-70,333
-70,147
-69,964
-69,784
-69,607
-69,434
-69,267
-69,105
-68,95
-68,802
-68,662
-68,53
-68,406
-68,291
-68,184
-68,087
-67,999
-67,919
-67,847
-67,784
-67,727
-67,678
-67,635
-67,597
-67,563
-67,534
-67,507
-67,482
-67,458
-67,433
-67,407
-67,379
-67,348
-67,314
-67,274
-67,229
-67,178
-67,12
-67,055
-66,982
-66,901
-66,813
-66,716
-66,611
-66,497
-66,375
-66,246
-66,109
-65,966
-65,816
-65,66
-65,499
-65,335
-65,167
-64,996
-64,824
-64,652
-64,48
-64,309
-64,142
-63,977
-63,818
-63,665
-63,519
-63,381
-63,253
-63,136
-63,03
-62,937
-62,858
-62,793
-62,743
-62,71
-62,694
-62,695
-62,713
-62,749
-62,802
-62,874
-62,962
-63,068
-63,19
-63,328
-63,48
-63,647
-63,827
-64,02
-64,223
-64,437
-64,659
-64,888
-65,122
-65,361
-65,602
-65,842
-66,08
-66,314
-66,541
-66,758
-66,962
-67,15
-67,319
-67,465
-67,586
-67,678
-67,737
-67,759
-67,743
-67,684
-67,58
-67,427
-67,224
-66,966
-66,652
-66,279
-65,845
-65,348
-64,785
-64,155
-63,456
-62,687
-61,847
-60,933
-59,947
-58,887
-57,754
-56,547
-55,268
-53,918
-52,498
-51,012
-49,462
-47,852
-46,186
-44,469
-42,707
-40,904
-39,067
-37,203
-35,318
-33,419
-31,515
-29,612
-27,719
-25,844
-23,996
-22,185
-20,422
-18,717
-17,081
-15,526
-14,063
-12,704
-11,461
-10,343
-9,362
-8,527
-7,848
-7,333
-6,994
-6,837
-6,871
-7,103
-7,539
-8,183
-9,038
-10,105
-11,381
-12,865
-14,554
-16,451
-18,556
-20,87
-23,39
-26,115
-29,034
-32,138
-35,411
-38,826
-42,355
-45,964
-49,62
-53,292
-56,948
-60,554
-64,07
-67,451
-70,648
-73,617
-76,314
-78,702
-80,757
-82,469
-83,841
-84,903
-85,689
-86,245
-86,635
-86,924
-87,188
-87,515
-87,982
-88,69
-89,777
-91,343
-93,447
-96,081
-99,095
-102,294
-105,487
-108,395
-110,695
-112,144
-112,558
-111,971
-110,788
-109,47
-108,456
-108,224
-109,077
-111,091
-114,168
-117,691
-120,347
-120,618
-116,819
-107,219
-90,504
-65,647
-31,934
10,564
60,87
117,444
178,119
240,344
301,698
359,627
411,561
455,334
489,224
511,936
522,766
521,458
507,961
482,727
446,692
401,122
347,66
288,259
225,075
160,417
96,744
36,448
-18,313
-65,727
-104,439
-133,664
-153,256
-163,535
-165,321
-159,898
-148,808
-133,744
-116,49
-98,613
-81,33
-65,743
-52,675
-42,586
-35,718
-31,911
-30,62
-31,272
-33,339
-36,136
-39,021
-41,405
-42,674
-42,591
-41,269
-38,87
-35,618
-31,831
-27,776
-23,786
-20,291
-17,468
-15,303
-13,73
-12,59
-11,739
-11,098
-10,534
-9,867
-9,006
-7,909
-6,578
-5,08
-3,464
-1,753
0,023
1,837
3,672
5,51
7,357
9,242
11,205
13,293
15,536
17,95
20,543
23,317
26,278
29,438
32,802
36,368
40,133
44,086
48,226
52,551
57,045
61,675
66,389
71,128
75,857
80,56
85,236
89,895
94,553
99,229
103,953
108,767
113,705
118,792
124,045
129,464
135,061
140,858
146,893
153,213
159,848
166,803
174,072
181,635
189,457
197,501
205,713
214,02
222,364
230,699
239
247,264
255,496
263,687
271,816
279,851
287,76
295,524
303,126
310,544
317,766
324,772
331,553
338,119
344,468
350,581
356,415
361,89
366,906
371,372
375,198
378,3
380,6
382,018
382,485
381,953
380,386
377,757
374,036
369,182
363,159
355,941
347,533
337,976
327,335
315,69
303,136
289,778
275,736
261,136
246,095
230,715
215,086
199,297
183,451
167,665
152,061
136,773
121,92
107,602
93,911
80,913
68,651
57,15
46,408
36,407
27,138
18,591
10,758
3,629
-2,831
-8,667
-13,935
-18,713
-23,082
-27,127
-30,939
-34,589
-38,123
-41,58
-44,974
-48,309
-51,593
-54,831
-58,022
-61,169
-64,263
-67,291
-70,239
-73,078
-75,773
-78,285
-80,567
-82,585
-84,323
-85,771
-86,934
-87,82
-88,44
-88,811
-88,953
-88,887
-88,63
-88,204
-87,624
-86,914
-86,097
-85,203
-84,261
-83,296
-82,324
-81,361
-80,416
-79,498
-78,612
-77,761
-76,944
-76,161
-75,415
-74,709
-74,045
-73,427
-72,855
-72,331
-71,855
-71,427
-71,049
-70,722
-70,446
-70,221
-70,048
-69,929
-69,863
-69,851
-69,893
-69,987
-70,131
-70,324
-70,564
-70,848
-71,175
-71,542
-71,947
-72,387
-72,862
-73,368
-73,904
-74,468
-75,058
-75,673
-76,309
-76,965
-77,638
-78,326
-79,024
-79,73
-80,441
-81,153
-81,863
-82,567
-83,262
-83,945
-84,614
-85,266
-85,898
-86,508
-87,095
-87,655
-88,188
-88,691
-89,164
-89,605
-90,014
-90,39
-90,733
-91,042
-91,317
-91,558
-91,765
-91,939
-92,079
-92,186
-92,261
-92,303
-92,316
-92,299
-92,256
-92,187
-92,096
-91,985
-91,856
-91,712
-91,556
-91,39
-91,217
-91,038
-90,858
-90,677
-90,498
-90,325
-90,158
-89,999
-89,851
-89,714
-89,591
-89,481
-89,386
-89,306
-89,241
-89,193
-89,16
-89,144
-89,144
-89,16
-89,192
-89,24
-89,302
-89,378
-89,468
-89,568
-89,679
-89,799
-89,925
-90,058
-90,195
-90,334
-90,475
-90,617
-90,757
-90,894
-91,027
-91,154
-91,275
-91,388
-91,491
-91,585
-91,669
-91,742
-91,803
-91,854
-91,893
-91,92
-91,936
-91,94
-91,932
-91,913
-91,882
-91,839
-91,785
-91,721
-91,646
-91,561
-91,467
-91,364
-91,252
-91,132
-91,003
-90,865
-90,72
-90,566
-90,404
-90,234
-90,056
-89,869
-89,675
-89,473
-89,262
-89,044
-88,817
-88,581
-88,337
-88,084
-87,823
-87,553
-87,275
-86,989
-86,695
-86,395
-86,089
-85,777
-85,461
-85,141
-84,819
-84,495
-84,17
-83,847
-83,527
-83,211
-82,902
-82,601
-82,311
-82,034
-81,771
-81,526
-81,299
-81,094
-80,913
-80,756
-80,627
-80,527
-80,457
-80,419
-80,413
-80,441
-80,504
-80,601
-80,732
-80,896
-81,093
-81,321
-81,579
-81,864
-82,173
-82,505
-82,855
-83,221
-83,598
-83,982
-84,369
-84,753
-85,13
-85,495
-85,841
-86,162
-86,454
-86,708
-86,92
-87,083
-87,191
-87,238
-87,218
-87,125
-86,954
-86,701
-86,359
-85,924
-85,393
-84,761
-84,027
-83,187
-82,239
-81,184
-80,02
-78,748
-77,37
-75,887
-74,301
-72,616
-70,836
-68,964
-67,006
-64,967
-62,853
-60,67
-58,426
-56,128
-53,786
-51,409
-49,007
-46,59
-44,172
-41,764
-39,378
-37,024
-34,716
-32,464
-30,281
-28,179
-26,171
-24,27
-22,491
-20,848
-19,356
-18,027
-16,872
-15,898
-15,111
-14,515
-14,117
-13,924
-13,94
-14,176
-14,643
-15,353
-16,319
-17,541
-19,015
-20,732
-22,678
-24,844
-27,22
-29,789
-32,543
-35,473
-38,564
-41,806
-45,172
-48,611
-52,07
-55,483
-58,787
-61,945
-64,922
-67,68
-70,193
-72,424
-74,346
-75,96
-77,237
-78,126
-78,632
-78,782
-78,664
-78,467
-78,346
-78,42
-78,867
-79,812
-81,254
-83,126
-85,208
-87,158
-88,768
-89,877
-90,235
-89,714
-88,378
-86,419
-84,265
-82,449
-81,27
-81,005
-82,142
-85,082
-90,004
-96,904
-105,362
-114,703
-124,367
-133,565
-140,949
-144,966
-144,037
-136,583
-121,441
-97,835
-65,041
-22,86
28,027
86,282
150,015
216,794
284,044
349,197
409,435
462,108
505,049
536,586
555,572
561,489
554,369
534,547
502,898
460,76
409,779
351,834
289,05
223,63
157,615
93,245
32,766
-21,859
-68,958
-107,247
-136,039
-155,098
-164,363
-164,431
-156,536
-142,275
-123,566
-102,381
-80,441
-59,332
-40,668
-25,658
-14,965
-8,675
-6,282
-6,995
-9,984
-14,326
-18,935
-22,767
-24,981
-25,169
-23,403
-19,99
-15,32
-9,834
-4,035
1,534
6,367
10,2
13,029
14,981
16,246
17,014
17,461
17,777
18,165
18,746
19,554
20,598
21,842
23,257
24,834
26,561
28,417
30,395
32,493
34,707
37,048
39,535
42,174
44,974
47,938
51,049
54,294
57,658
61,122
64,67
68,284
71,928
75,576
79,211
82,818
86,397
89,947
93,452
96,908
100,324
103,721
107,141
110,637
114,251
118,03
122,022
126,273
130,848
135,795
141,142
146,91
153,096
159,693
166,701
174,109
181,89
190,007
198,399
206,993
215,726
224,54
233,377
242,182
250,887
259,437
267,798
275,958
283,925
291,715
299,333
306,786
314,087
321,252
328,306
335,276
342,171
348,983
355,693
362,282
368,733
375,02
381,101
386,902
392,323
397,26
401,617
405,296
408,203
410,24
411,309
411,33
410,248
408,027
404,656
400,117
394,392
387,473
379,358
370,078
359,698
348,286
335,918
322,684
308,687
294,044
278,888
263,334
247,478
231,412
215,21
198,967
182,791
166,793
151,09
135,788
120,976
106,743
93,174
80,326
68,234
56,913
46,346
36,53
27,469
19,16
11,603
4,779
-1,356
-6,85
-11,765
-16,173
-20,15
-23,778
-27,148
-30,327
-33,36
-36,276
-39,085
-41,797
-44,431
-46,998
-49,505
-51,954
-54,339
-56,649
-58,873
-60,989
-62,967
-64,771
-66,358
-67,702
-68,792
-69,626
-70,215
-70,572
-70,708
-70,64
-70,392
-69,984
-69,437
-68,77
-68
-67,148
-66,241
-65,305
-64,372
-63,465
-62,601
-61,793
-61,049
-60,376
-59,779
-59,258
-58,811
-58,434
-58,129
-57,895
-57,733
-57,644
-57,624
-57,671
-57,78
-57,948
-58,172
-58,448
-58,771
-59,14
-59,549
-59,997
-60,481
-60,998
-61,545
-62,119
-62,714
-63,327
-63,954
-64,592
-65,237
-65,885
-66,532
-67,178
-67,818
-68,452
-69,078
-69,694
-70,299
-70,892
-71,474
-72,042
-72,596
-73,136
-73,662
-74,173
-74,67
-75,152
-75,62
-76,074
-76,515
-76,944
-77,361
-77,766
-78,161
-78,545
-78,92
-79,286
-79,642
-79,991
-80,332
-80,665
-80,992
-81,311
-81,623
-81,928
-82,225
-82,514
-82,793
-83,064
-83,323
-83,571
-83,807
-84,029
-84,237
-84,429
-84,606
-84,765
-84,905
-85,027
-85,129
-85,211
-85,272
-85,312
-85,33
-85,326
-85,3
-85,253
-85,183
-85,093
-84,981
-84,849
-84,697
-84,526
-84,336
-84,13
-83,907
-83,669
-83,418
-83,155
-82,881
-82,598
-82,308
-82,013
-81,715
-81,415
-81,116
-80,819
-80,526
-80,239
-79,96
-79,69
-79,431
-79,184
-78,95
-78,73
-78,526
-78,338
-78,166
-78,011
-77,873
-77,752
-77,649
-77,563
-77,493
-77,44
-77,403
-77,381
-77,374
-77,381
-77,401
-77,433
-77,476
-77,528
-77,589
-77,656
-77,729
-77,805
-77,884
-77,963
-78,04
-78,115
-78,185
-78,249
-78,305
-78,353
-78,39
-78,416
-78,429
-78,429
-78,414
-78,386
-78,342
-78,283
-78,209
-78,118
-78,013
-77,892
-77,755
-77,604
-77,439
-77,259
-77,066
-76,861
-76,645
-76,418
-76,182
-75,939
-75,689
-75,436
-75,179
-74,922
-74,666
-74,414
-74,167
-73,928
-73,699
-73,482
-73,279
-73,093
-72,924
-72,775
-72,647
-72,542
-72,46
-72,403
-72,371
-72,365
-72,386
-72,434
-72,508
-72,609
-72,736
-72,889
-73,066
-73,267
-73,489
-73,73
-73,99
-74,264
-74,551
-74,847
-75,149
-75,453
-75,756
-76,052
-76,338
-76,607
-76,856
-77,079
-77,271
-77,425
-77,538
-77,605
-77,619
-77,577
-77,474
-77,305
-77,066
-76,753
-76,361
-75,887
-75,328
-74,681
-73,944
-73,114
-72,19
-71,172
-70,058
-68,85
-67,547
-66,15
-64,66
-63,081
-61,413
-59,661
-57,829
-55,92
-53,941
-51,898
-49,799
-47,652
-45,464
-43,246
-41,008
-38,758
-36,508
-34,266
-32,042
-29,846
-27,689
-25,584
-23,541
-21,575
-19,697
-17,92
-16,259
-14,724
-13,325
-12,07
-10,966
-10,019
-9,239
-8,638
-8,228
-8,026
-8,043
-8,291
-8,783
-9,525
-10,516
-11,752
-13,221
-14,912
-16,821
-18,944
-21,282
-23,832
-26,578
-29,5
-32,572
-35,746
-38,976
-42,213
-45,395
-48,474
-51,417
-54,193
-56,791
-59,196
-61,384
-63,33
-65,007
-66,386
-67,465
-68,252
-68,769
-69,077
-69,235
-69,319
-69,432
-69,661
-70,087
-70,792
-71,825
-73,243
-75,141
-77,582
-80,59
-84,137
-88,063
-92,165
-96,232
-99,961
-102,996
-105,05
-105,903
-105,553
-104,316
-102,595
-100,82
-99,487
-99,031
-99,711
-101,539
-104,04
-106,144
-106,489
-103,526
-95,588
-81,096
-58,673
-27,342
13,157
62,217
118,509
180,042
244,272
308,281
368,895
422,953
467,622
500,606
520,254
525,652
516,681
493,98
458,869
413,217
359,295
299,643
236,941
173,817
112,59
55,172
3,195
-42,043
-79,639
-109,15
-130,723
-144,922
-152,367
-153,646
-149,601
-141,354
-130,189
-117,359
-103,712
-89,827
-76,37
-64,187
-53,948
-45,862
-39,697
-35,009
-31,518
-29,061
-27,327
-25,711
-23,544
-20,503
-16,654
-12,277
-7,633
-2,893
1,759
5,974
9,313
11,539
12,644
12,772
12,14
10,923
9,257
7,334
5,395
3,624
2,141
1,013
0,253
-0,112
-0,034
0,506
1,507
2,957
4,829
7,102
9,761
12,779
16,123
19,758
23,646
27,752
32,042
36,481
41,029
45,638
50,253
54,836
59,355
63,787
68,119
72,331
76,407
80,347
84,155
87,848
91,45
94,981
98,464
101,936
105,437
109,026
112,77
116,716
120,906
125,377
130,159
135,289
140,797
146,696
152,989
159,67
166,719
174,121
181,85
189,859
198,096
206,501
214,996
223,524
232,035
240,486
248,851
257,105
265,225
273,2
281,022
288,681
296,169
303,476
310,59
317,508
324,223
330,731
337,038
343,139
349,015
354,63
359,921
364,805
369,195
373,002
376,131
378,496
380,012
380,606
380,224
378,822
376,369
372,831
368,171
362,359
355,37
347,21
337,914
327,547
316,19
303,938
290,902
277,204
262,975
248,331
233,378
218,205
202,9
187,562
172,299
157,227
142,469
128,134
114,315
101,094
88,53
76,658
65,493
55,028
45,24
36,113
27,637
19,802
12,6
6,003
-0,028
-5,538
-10,596
-15,27
-19,632
-23,764
-27,726
-31,558
-35,288
-38,924
-42,465
-45,913
-49,272
-52,54
-55,719
-58,805
-61,789
-64,662
-67,405
-69,989
-72,384
-74,548
-76,454
-78,091
-79,452
-80,544
-81,38
-81,972
-82,336
-82,495
-82,468
-82,273
-81,929
-81,451
-80,858
-80,173
-79,422
-78,633
-77,83
-77,03
-76,245
-75,488
-74,764
-74,081
-73,44
-72,839
-72,279
-71,762
-71,288
-70,861
-70,482
-70,15
-69,866
-69,628
-69,435
-69,285
-69,179
-69,114
-69,089
-69,104
-69,159
-69,253
-69,385
-69,554
-69,758
-69,995
-70,263
-70,559
-70,88
-71,224
-71,587
-71,968
-72,363
-72,772
-73,191
-73,619
-74,055
-74,495
-74,94
-75,387
-75,835
-76,283
-76,729
-77,171
-77,608
-78,039
-78,463
-78,879
-79,285
-79,681
-80,065
-80,438
-80,797
-81,142
-81,473
-81,789
-82,089
-82,373
-82,642
-82,895
-83,133
-83,355
-83,564
-83,758
-83,939
-84,107
-84,264
-84,41
-84,545
-84,671
-84,789
-84,899
-85,002
-85,101
-85,195
-85,285
-85,374
-85,461
-85,548
-85,636
-85,725
-85,818
-85,915
-86,017
-86,125
-86,24
-86,363
-86,494
-86,634
-86,784
-86,944
-87,114
-87,294
-87,483
-87,683
-87,891
-88,108
-88,333
-88,565
-88,803
-89,046
-89,294
-89,544
-89,797
-90,051
-90,305
-90,557
-90,808
-91,055
-91,298
-91,536
-91,768
-91,992
-92,208
-92,414
-92,61
-92,794
-92,966
-93,125
-93,27
-93,401
-93,517
-93,618
-93,703
-93,773
-93,828
-93,867
-93,892
-93,901
-93,896
-93,878
-93,847
-93,803
-93,748
-93,682
-93,606
-93,52
-93,425
-93,322
-93,211
-93,094
-92,97
-92,84
-92,707
-92,57
-92,431
-92,291
-92,152
-92,014
-91,878
-91,746
-91,619
-91,498
-91,383
-91,276
-91,177
-91,088
-91,01
-90,942
-90,887
-90,845
-90,815
-90,8
-90,798
-90,811
-90,838
-90,881
-90,939
-91,014
-91,104
-91,212
-91,336
-91,476
-91,632
-91,803
-91,987
-92,181
-92,384
-92,594
-92,807
-93,021
-93,233
-93,441
-93,643
-93,836
-94,017
-94,185
-94,335
-94,463
-94,565
-94,635
-94,669
-94,661
-94,607
-94,5
-94,334
-94,107
-93,813
-93,448
-93,005
-92,476
-91,856
-91,141
-90,33
-89,423
-88,422
-87,33
-86,153
-84,903
-83,592
-82,229
-80,824
-79,377
-77,889
-76,362
-74,798
-73,201
-71,57
-69,896
-68,168
-66,376
-64,513
-62,569
-60,533
-58,377
-56,08
-53,63
-51,018
-48,253
-45,353
-42,329
-39,201
-35,998
-32,756
-29,532
-26,388
-23,373
-20,534
-17,919
-15,573
-13,565
-11,953
-10,781
-10,084
-9,882
-10,188
-11,021
-12,393
-14,284
-16,662
-19,472
-22,642
-26,122
-29,863
-33,809
-37,91
-42,101
-46,316
-50,513
-54,65
-58,671
-62,521
-66,122
-69,402
-72,328
-74,886
-77,085
-78,954
-80,497
-81,717
-82,63
-83,241
-83,572
-83,641
-83,432
-82,972
-82,346
-81,695
-81,252
-81,252
-81,839
-83,11
-85,109
-87,764
-90,962
-94,451
-97,776
-100,483
-102,156
-102,529
-101,576
-99,451
-96,385
-92,788
-89,318
-86,714
-85,787
-87,224
-91,396
-98,202
-107,337
-117,693
-127,152
-134,498
-138,683
-139,531
-138,581
-134,11
-122,182
-98,973
-59,685
-5,103
58,722
126,312
191,469
251,262
306,729
357,338
402,072
439,347
466,447
481,904
485,38
476,892
456,853
426,059
385,628
337,078
282,229
223,169
162,042
100,892
41,986
-12,471
-60,693
-101,256
-133,185
-156,207
-170,455
-176,171
-174,215
-165,999
-153,058
-137,075
-119,691
-102,106
-85,371
-70,7
-58,919
-50,263
-44,621
-41,493
-40,201
-40,247
-41,088
-41,881
-41,841
-40,56
-37,933
-34,182
-29,704
-24,802
-19,78
-15,108
-11,27
-8,545
-7,015
-6,583
-7,023
-8,132
-9,719
-11,538
-13,329
-14,908
-16,152
-16,98
-17,361
-17,27
-16,689
-15,634
-14,138
-12,227
-9,929
-7,275
-4,301
-1,052
2,422
6,08
9,892
13,824
17,839
21,893
25,937
29,94
33,89
37,779
41,609
45,383
49,11
52,809
56,509
60,235
64,013
67,862
71,796
75,835
80,001
84,321
88,825
93,535
98,463
103,622
109,018
114,653
120,526
126,623
132,921
139,401
146,043
152,832
159,757
166,8
173,941
181,158
188,425
195,719
203,022
210,314
217,576
224,794
231,962
239,087
246,192
253,296
260,41
267,542
274,689
281,849
289,013
296,165
303,286
310,345
317,307
324,136
330,799
337,253
343,445
349,298
354,711
359,587
363,827
367,338
370,034
371,828
372,652
372,457
371,21
368,893
365,5
361,013
355,426
348,734
340,944
332,09
322,236
311,446
299,811
287,429
274,407
260,871
246,929
232,674
218,19
203,549
188,829
174,122
159,523
145,129
131,052
117,386
104,214
91,622
79,66
68,358
57,732
47,768
38,461
29,813
21,823
14,494
7,82
1,774
-3,675
-8,565
-12,964
-16,94
-20,565
-23,926
-27,081
-30,068
-32,918
-35,638
-38,238
-40,731
-43,125
-45,427
-47,645
-49,777
-51,822
-53,78
-55,631
-57,349
-58,903
-60,254
-61,376
-62,261
-62,904
-63,314
-63,502
-63,48
-63,266
-62,881
-62,344
-61,673
-60,884
-59,991
-59,014
-57,975
-56,899
-55,814
-54,744
-53,702
-52,704
-51,757
-50,868
-50,041
-49,277
-48,571
-47,924
-47,334
-46,801
-46,327
-45,911
-45,552
-45,246
-44,992
-44,785
-44,623
-44,502
-44,421
-44,375
-44,363
-44,382
-44,431
-44,507
-44,609
-44,733
-44,877
-45,037
-45,21
-45,394
-45,586
-45,783
-45,983
-46,185
-46,386
-46,587
-46,785
-46,98
-47,172
-47,36
-47,544
-47,724
-47,899
-48,07
-48,236
-48,398
-48,556
-48,711
-48,863
-49,013
-49,162
-49,311
-49,459
-49,609
-49,761
-49,917
-50,076
-50,24
-50,409
-50,585
-50,769
-50,961
-51,162
-51,372
-51,592
-51,823
-52,064
-52,317
-52,58
-52,854
-53,14
-53,436
-53,744
-54,062
-54,391
-54,73
-55,079
-55,437
-55,804
-56,178
-56,56
-56,947
-57,34
-57,736
-58,135
-58,535
-58,935
-59,334
-59,73
-60,122
-60,508
-60,886
-61,256
-61,616
-61,964
-62,299
-62,62
-62,927
-63,217
-63,489
-63,743
-63,978
-64,192
-64,385
-64,556
-64,704
-64,828
-64,929
-65,005
-65,058
-65,087
-65,092
-65,074
-65,033
-64,972
-64,89
-64,789
-64,671
-64,536
-64,388
-64,228
-64,058
-63,879
-63,695
-63,508
-63,318
-63,13
-62,943
-62,761
-62,586
-62,418
-62,26
-62,113
-61,979
-61,859
-61,754
-61,667
-61,598
-61,548
-61,517
-61,507
-61,517
-61,547
-61,598
-61,669
-61,76
-61,868
-61,994
-62,135
-62,292
-62,46
-62,64
-62,827
-63,022
-63,22
-63,419
-63,618
-63,813
-64,003
-64,186
-64,36
-64,524
-64,675
-64,814
-64,94
-65,05
-65,146
-65,227
-65,291
-65,34
-65,373
-65,39
-65,393
-65,381
-65,357
-65,321
-65,275
-65,221
-65,16
-65,096
-65,029
-64,963
-64,899
-64,84
-64,79
-64,75
-64,724
-64,714
-64,723
-64,754
-64,807
-64,886
-64,99
-65,12
-65,276
-65,457
-65,662
-65,888
-66,134
-66,399
-66,679
-66,973
-67,277
-67,59
-67,91
-68,232
-68,554
-68,87
-69,174
-69,46
-69,723
-69,956
-70,151
-70,302
-70,402
-70,445
-70,428
-70,345
-70,189
-69,955
-69,631
-69,213
-68,696
-68,08
-67,363
-66,547
-65,638
-64,644
-63,585
-62,471
-61,309
-60,101
-58,844
-57,534
-56,172
-54,756
-53,285
-51,756
-50,167
-48,515
-46,808
-45,042
-43,209
-41,289
-39,249
-37,073
-34,76
-32,316
-29,758
-27,112
-24,404
-21,672
-18,969
-16,339
-13,826
-11,461
-9,264
-7,265
-5,506
-4,039
-2,925
-2,214
-1,935
-2,112
-2,766
-3,901
-5,507
-7,548
-9,962
-12,692
-15,697
-18,938
-22,388
-26,017
-29,778
-33,623
-37,499
-41,356
-45,14
-48,789
-52,227
-55,385
-58,226
-60,743
-62,96
-64,903
-66,573
-67,967
-69,087
-69,924
-70,487
-70,782
-70,785
-70,518
-70,063
-69,559
-69,231
-69,304
-69,916
-71,154
-73,061
-75,554
-78,491
-81,628
-84,55
-86,853
-88,178
-88,293
-87,171
-84,999
-82,094
-78,888
-75,966
-73,983
-73,738
-75,85
-80,59
-87,887
-97,223
-107,848
-118,837
-128,89
-136,258
-139,215
-136,174
-125,858
-107,681
-81,353
-46,865
-4,854
43,416
96,311
151,824
207,858
262,602
314,207
360,875
401,07
433,432
456,911
470,783
474,536
467,884
450,811
423,54
386,721
341,528
289,435
232,378
172,579
112,165
53,457
-1,118
-49,515
-90,146
-121,886
-144,44
-158,022
-162,903
-159,943
-150,616
-136,554
-119,513
-101,192
-82,813
-65,434
-50,344
-38,48
-30,144
-25,249
-23,313
-23,66
-25,776
-29,071
-32,565
-35,299
-36,735
-36,673
-35,254
-32,808
-29,587
-25,878
-22,202
-19,133
-17,019
-15,979
-15,926
-16,633
-17,904
-19,551
-21,322
-22,928
-24,156
-24,885
-25,061
-24,707
-23,846
-22,489
-20,667
-18,425
-15,801
-12,834
-9,571
-6,045
-2,299
1,616
5,657
9,776
13,92
18,053
22,142
26,165
30,118
33,998
37,803
41,535
45,208
48,833
52,435
56,034
59,646
63,294
66,999
70,788
74,689
78,724
82,909
87,26
91,791
96,516
101,448
106,594
111,955
117,531
123,318
129,313
135,505
141,876
148,406
155,073
161,857
168,743
175,71
182,735
189,792
196,853
203,894
210,895
217,837
224,703
231,478
238,159
244,759
251,306
257,823
264,331
270,843
277,365
283,909
290,482
297,082
303,703
310,325
316,928
323,492
329,992
336,386
342,61
348,568
354,143
359,221
363,686
367,427
370,334
372,293
373,205
372,999
371,616
369,008
365,128
359,923
353,353
345,411
336,116
325,527
313,734
300,838
286,961
272,243
256,837
240,909
224,612
208,074
191,424
174,792
158,322
142,174
126,498
111,423
97,065
83,519
70,85
59,107
48,304
38,423
29,433
21,287
13,941
7,364
1,514
-3,666
-8,245
-12,309
-15,95
-19,252
-22,306
-25,206
-28,026
-30,822
-33,628
-36,451
-39,289
-42,139
-44,994
-47,848
-50,691
-53,505
-56,27
-58,961
-61,548
-63,999
-66,275
-68,327
-70,124
-71,646
-72,886
-73,851
-74,552
-75,001
-75,213
-75,212
-75,018
-74,651
-74,13
-73,472
-72,697
-71,827
-70,888
-69,91
-68,915
-67,918
-66,934
-65,97
-65,032
-64,126
-63,254
-62,414
-61,604
-60,826
-60,082
-59,375
-58,708
-58,08
-57,49
-56,94
-56,427
-55,953
-55,517
-55,119
-54,76
-54,439
-54,158
-53,919
-53,721
-53,566
-53,453
-53,382
-53,35
-53,358
-53,405
-53,489
-53,609
-53,764
-53,951
-54,172
-54,423
-54,705
-55,015
-55,352
-55,715
-56,101
-56,51
-56,939
-57,386
-57,848
-58,325
-58,814
-59,312
-59,819
-60,332
-60,85
-61,371
-61,894
-62,417
-62,938
-63,457
-63,971
-64,48
-64,983
-65,477
-65,963
-66,439
-66,905
-67,361
-67,804
-68,235
-68,654
-69,058
-69,45
-69,826
-70,189
-70,537
-70,871
-71,19
-71,496
-71,788
-72,066
-72,332
-72,585
-72,827
-73,056
-73,274
-73,481
-73,676
-73,861
-74,035
-74,199
-74,352
-74,494
-74,626
-74,748
-74,859
-74,959
-75,047
-75,125
-75,191
-75,246
-75,29
-75,322
-75,344
-75,354
-75,353
-75,342
-75,32
-75,288
-75,247
-75,195
-75,134
-75,064
-74,985
-74,898
-74,803
-74,701
-74,592
-74,478
-74,358
-74,234
-74,106
-73,975
-73,842
-73,709
-73,576
-73,444
-73,314
-73,189
-73,067
-72,952
-72,842
-72,74
-72,645
-72,558
-72,479
-72,409
-72,347
-72,293
-72,248
-72,21
-72,18
-72,156
-72,139
-72,127
-72,119
-72,115
-72,115
-72,116
-72,119
-72,123
-72,126
-72,127
-72,127
-72,124
-72,116
-72,104
-72,085
-72,058
-72,023
-71,978
-71,923
-71,857
-71,779
-71,688
-71,585
-71,469
-71,341
-71,2
-71,046
-70,881
-70,705
-70,519
-70,324
-70,121
-69,911
-69,697
-69,478
-69,258
-69,036
-68,815
-68,596
-68,38
-68,168
-67,961
-67,762
-67,571
-67,39
-67,221
-67,065
-66,925
-66,801
-66,697
-66,612
-66,549
-66,508
-66,491
-66,498
-66,531
-66,591
-66,676
-66,789
-66,929
-67,097
-67,291
-67,512
-67,759
-68,03
-68,324
-68,641
-68,98
-69,337
-69,714
-70,107
-70,517
-70,941
-71,378
-71,824
-72,279
-72,738
-73,199
-73,658
-74,11
-74,553
-74,982
-75,394
-75,784
-76,15
-76,488
-76,795
-77,069
-77,306
-77,502
-77,653
-77,754
-77,8
-77,788
-77,713
-77,569
-77,352
-77,057
-76,684
-76,229
-75,69
-75,063
-74,342
-73,521
-72,602
-71,586
-70,474
-69,272
-67,982
-66,617
-65,191
-63,72
-62,218
-60,694
-59,145
-57,575
-55,985
-54,377
-52,757
-51,121
-49,459
-47,765
-46,036
-44,265
-42,448
-40,566
-38,588
-36,491
-34,257
-31,882
-29,38
-26,768
-24,062
-21,292
-18,494
-15,712
-13,009
-10,429
-8,01
-5,795
-3,823
-2,148
-0,845
0,025
0,411
0,265
-0,432
-1,69
-3,509
-5,86
-8,701
-11,982
-15,631
-19,591
-23,814
-28,241
-32,823
-37,501
-42,192
-46,811
-51,273
-55,474
-59,332
-62,792
-65,815
-68,396
-70,542
-72,257
-73,56
-74,471
-75,005
-75,192
-75,052
-74,583
-73,837
-72,919
-71,989
-71,284
-71,022
-71,342
-72,345
-74,087
-76,518
-79,53
-82,903
-86,257
-89,203
-91,386
-92,554
-92,639
-91,744
-90,067
-87,928
-85,798
-84,257
-84,064
-85,82
-89,812
-96,032
-104,069
-113,28
-122,831
-131,478
-137,473
-139,061
-134,599
-122,706
-102,654
-74,007
-36,64
8,843
61,119
118,435
178,599
239,266
298,34
353,63
403,026
444,815
477,593
500,386
512,674
514,224
505,053
485,532
456,26
418,093
372,266
320,138
263,325
203,688
143,037
83,326
26,645
-25,094
-70,274
-107,535
-136,07
-155,568
-165,904
-167,546
-161,554
-149,348
-132,655
-113,311
-92,961
-73,101
-55,249
-40,575
-29,787
-23,063
-20,027
-20,023
-22,328
-26,124
-30,442
-34,313
-36,891
-37,734
-36,861
-34,496
-30,968
-26,664
-22,015
-17,529
-13,731
-10,907
-9,084
-8,16
-7,932
-8,193
-8,767
-9,446
-10,005
-10,309
-10,292
-9,934
-9,273
-8,34
-7,147
-5,714
-4,053
-2,156
-0,025
2,33
4,904
7,677
10,637
13,783
17,105
20,593
24,233
28,008
31,916
35,963
40,145
44,455
48,872
53,36
57,898
62,472
67,064
71,66
76,235
80,759
85,22
89,618
93,957
98,248
102,49
106,684
110,842
114,982
119,128
123,319
127,58
131,941
136,452
141,155
146,102
151,347
156,921
162,836
169,103
175,719
182,688
190,006
197,654
205,608
213,847
222,34
231,07
240,009
249,101
258,292
267,524
276,734
285,875
294,91
303,788
312,466
320,896
329,025
336,816
344,227
351,206
357,7
363,642
368,964
373,623
377,569
380,747
383,104
384,581
385,115
384,674
383,23
380,76
377,261
372,724
367,146
360,538
352,917
344,309
334,752
324,283
312,952
300,829
287,995
274,545
260,587
246,212
231,502
216,544
201,413
186,184
170,946
155,785
140,793
126,075
111,726
97,836
84,492
71,763
59,699
48,328
37,659
27,693
18,441
9,906
2,088
-5,014
-11,421
-17,166
-22,292
-26,862
-30,948
-34,62
-37,959
-41,045
-43,935
-46,672
-49,283
-51,78
-54,18
-56,502
-58,757
-60,954
-63,096
-65,179
-67,195
-69,13
-70,959
-72,655
-74,185
-75,508
-76,604
-77,462
-78,081
-78,471
-78,643
-78,609
-78,384
-77,989
-77,442
-76,763
-75,969
-75,076
-74,105
-73,08
-72,025
-70,969
-69,934
-68,934
-67,981
-67,082
-66,243
-65,468
-64,756
-64,105
-63,515
-62,984
-62,513
-62,104
-61,757
-61,471
-61,243
-61,069
-60,947
-60,875
-60,85
-60,869
-60,928
-61,027
-61,162
-61,332
-61,536
-61,77
-62,032
-62,318
-62,626
-62,953
-63,296
-63,653
-64,02
-64,396
-64,78
-65,169
-65,562
-65,958
-66,357
-66,757
-67,157
-67,556
-67,955
-68,351
-68,744
-69,133
-69,518
-69,899
-70,275
-70,645
-71,01
-71,37
-71,725
-72,076
-72,423
-72,766
-73,105
-73,442
-73,776
-74,109
-74,44
-74,769
-75,097
-75,424
-75,749
-76,074
-76,396
-76,717
-77,035
-77,35
-77,661
-77,969
-78,271
-78,568
-78,859
-79,144
-79,422
-79,693
-79,956
-80,211
-80,458
-80,696
-80,924
-81,142
-81,351
-81,548
-81,733
-81,907
-82,067
-82,214
-82,347
-82,465
-82,568
-82,655
-82,725
-82,779
-82,817
-82,837
-82,841
-82,828
-82,799
-82,753
-82,692
-82,616
-82,525
-82,419
-82,3
-82,169
-82,024
-81,868
-81,701
-81,523
-81,335
-81,138
-80,931
-80,716
-80,493
-80,263
-80,026
-79,783
-79,535
-79,284
-79,028
-78,771
-78,512
-78,253
-77,995
-77,738
-77,484
-77,232
-76,985
-76,742
-76,504
-76,272
-76,045
-75,825
-75,61
-75,401
-75,198
-75
-74,809
-74,622
-74,441
-74,264
-74,092
-73,924
-73,76
-73,601
-73,445
-73,294
-73,145
-73
-72,857
-72,717
-72,579
-72,441
-72,303
-72,165
-72,025
-71,882
-71,735
-71,583
-71,426
-71,263
-71,092
-70,914
-70,727
-70,531
-70,325
-70,11
-69,885
-69,649
-69,405
-69,15
-68,886
-68,614
-68,333
-68,044
-67,747
-67,442
-67,13
-66,812
-66,487
-66,157
-65,822
-65,482
-65,14
-64,797
-64,454
-64,112
-63,775
-63,443
-63,12
-62,806
-62,505
-62,218
-61,947
-61,694
-61,462
-61,252
-61,066
-60,906
-60,773
-60,669
-60,595
-60,552
-60,539
-60,558
-60,609
-60,691
-60,806
-60,952
-61,13
-61,34
-61,58
-61,851
-62,149
-62,475
-62,825
-63,196
-63,585
-63,988
-64,401
-64,819
-65,236
-65,649
-66,052
-66,441
-66,812
-67,158
-67,476
-67,76
-68,004
-68,203
-68,351
-68,439
-68,463
-68,415
-68,29
-68,082
-67,788
-67,403
-66,925
-66,35
-65,675
-64,895
-64,003
-62,997
-61,873
-60,632
-59,279
-57,819
-56,264
-54,624
-52,913
-51,142
-49,317
-47,442
-45,516
-43,537
-41,501
-39,413
-37,281
-35,113
-32,918
-30,7
-28,464
-26,207
-23,925
-21,606
-19,237
-16,814
-14,342
-11,839
-9,337
-6,873
-4,491
-2,226
-0,107
1,838
3,588
5,122
6,421
7,459
8,204
8,612
8,64
8,255
7,442
6,203
4,553
2,517
0,136
-2,55
-5,507
-8,701
-12,112
-15,727
-19,528
-23,488
-27,556
-31,667
-35,753
-39,764
-43,664
-47,417
-50,988
-54,338
-57,447
-60,308
-62,923
-65,269
-67,279
-68,927
-70,23
-71,261
-72,192
-73,179
-74,304
-75,692
-77,497
-79,716
-82,279
-84,994
-87,411
-89,184
-90,133
-89,955
-88,418
-85,598
-81,675
-77,089
-72,7
-69,143
-66,907
-66,771
-69,364
-74,913
-83,475
-94,57
-107,076
-120
-132,201
-141,927
-147,396
-146,994
-139,141
-122,841
-97,777
-63,674
-20,747
29,938
86,895
148,268
211,773
275,146
336,25
392,721
442,384
483,458
514,459
534,273
542,234
538,124
522,036
494,529
456,57
409,498
354,963
294,959
231,718
167,322
103,979
43,966
-10,669
-58,173
-97,156
-126,887
-147,18
-157,992
-159,846
-153,892
-141,66
-125,032
-105,975
-86,164
-67,071
-50,187
-36,675
-27,22
-21,944
-20,362
-21,699
-25,137
-29,82
-34,779
-39,041
-41,768
-42,541
-41,392
-38,594
-34,54
-29,647
-24,369
-19,217
-14,691
-11,063
-8,368
-6,511
-5,316
-4,612
-4,237
-4,007
-3,734
-3,304
-2,69
-1,9
-0,964
0,089
1,248
2,495
3,805
5,164
6,58
8,062
9,633
11,32
13,133
15,083
17,186
19,448
21,879
24,488
27,273
30,232
33,371
36,684
40,171
43,836
47,669
51,665
55,813
60,09
64,484
68,991
73,608
78,338
83,182
88,143
93,23
98,459
103,844
109,398
115,129
121,04
127,135
133,422
139,902
146,578
153,44
160,474
167,665
174,998
182,459
190,032
197,693
205,414
213,163
220,916
228,651
236,351
243,993
251,56
259,04
266,439
273,773
281,058
288,304
295,513
302,678
309,798
316,863
323,858
330,766
337,554
344,186
350,63
356,85
362,81
368,457
373,716
378,492
382,691
386,221
388,997
390,938
391,96
391,999
391,01
388,96
385,838
381,635
376,338
369,936
362,423
353,802
344,105
333,39
321,716
309,166
295,834
281,823
267,261
252,258
236,906
221,294
205,5
189,607
173,715
157,93
142,357
127,119
112,323
98,065
84,443
71,52
59,337
47,914
37,245
27,323
18,153
9,731
2,054
-4,888
-11,129
-16,708
-21,672
-26,097
-30,063
-33,652
-36,961
-40,057
-42,986
-45,785
-48,465
-51,037
-53,516
-55,91
-58,222
-60,457
-62,612
-64,681
-66,659
-68,523
-70,244
-71,787
-73,109
-74,182
-74,998
-75,55
-75,846
-75,901
-75,726
-75,342
-74,775
-74,043
-73,171
-72,176
-71,075
-69,89
-68,648
-67,375
-66,103
-64,854
-63,646
-62,494
-61,409
-60,395
-59,46
-58,604
-57,824
-57,119
-56,491
-55,938
-55,464
-55,067
-54,748
-54,502
-54,329
-54,224
-54,186
-54,21
-54,294
-54,434
-54,627
-54,87
-55,162
-55,498
-55,876
-56,291
-56,738
-57,214
-57,715
-58,235
-58,772
-59,321
-59,878
-60,441
-61,006
-61,572
-62,135
-62,694
-63,247
-63,792
-64,326
-64,85
-65,36
-65,856
-66,336
-66,799
-67,244
-67,671
-68,078
-68,465
-68,833
-69,182
-69,512
-69,824
-70,119
-70,397
-70,66
-70,909
-71,145
-71,37
-71,584
-71,79
-71,989
-72,182
-72,37
-72,556
-72,738
-72,919
-73,1
-73,281
-73,463
-73,647
-73,833
-74,022
-74,216
-74,415
-74,619
-74,83
-75,048
-75,273
-75,507
-75,748
-75,998
-76,256
-76,523
-76,797
-77,078
-77,365
-77,659
-77,957
-78,259
-78,563
-78,869
-79,176
-79,481
-79,785
-80,085
-80,381
-80,671
-80,955
-81,233
-81,502
-81,764
-82,016
-82,258
-82,489
-82,709
-82,918
-83,114
-83,297
-83,467
-83,623
-83,765
-83,894
-84,008
-84,108
-84,194
-84,268
-84,328
-84,377
-84,414
-84,441
-84,46
-84,47
-84,474
-84,472
-84,466
-84,458
-84,447
-84,436
-84,425
-84,416
-84,409
-84,404
-84,402
-84,405
-84,411
-84,422
-84,437
-84,458
-84,483
-84,514
-84,549
-84,589
-84,634
-84,683
-84,736
-84,792
-84,851
-84,912
-84,974
-85,036
-85,097
-85,156
-85,211
-85,262
-85,306
-85,342
-85,369
-85,386
-85,392
-85,384
-85,364
-85,328
-85,278
-85,212
-85,131
-85,033
-84,92
-84,791
-84,647
-84,489
-84,316
-84,131
-83,933
-83,725
-83,507
-83,28
-83,047
-82,808
-82,566
-82,323
-82,08
-81,84
-81,605
-81,378
-81,16
-80,956
-80,767
-80,596
-80,446
-80,319
-80,217
-80,144
-80,1
-80,088
-80,11
-80,166
-80,258
-80,386
-80,55
-80,752
-80,99
-81,263
-81,572
-81,914
-82,289
-82,694
-83,127
-83,586
-84,067
-84,569
-85,086
-85,616
-86,154
-86,696
-87,236
-87,771
-88,295
-88,801
-89,285
-89,74
-90,16
-90,538
-90,869
-91,146
-91,363
-91,515
-91,595
-91,599
-91,522
-91,358
-91,103
-90,754
-90,307
-89,759
-89,107
-88,349
-87,484
-86,511
-85,429
-84,239
-82,942
-81,539
-80,032
-78,423
-76,717
-74,917
-73,027
-71,053
-69
-66,876
-64,687
-62,443
-60,152
-57,826
-55,475
-53,111
-50,747
-48,394
-46,066
-43,775
-41,533
-39,353
-37,248
-35,231
-33,318
-31,524
-29,861
-28,348
-26,996
-25,819
-24,826
-24,026
-23,423
-23,026
-22,842
-22,88
-23,155
-23,677
-24,456
-25,5
-26,811
-28,386
-30,222
-32,303
-34,615
-37,139
-39,861
-42,774
-45,869
-49,129
-52,529
-56,031
-59,585
-63,136
-66,632
-70,02
-73,259
-76,314
-79,148
-81,74
-84,073
-86,135
-87,921
-89,398
-90,52
-91,294
-91,779
-92,091
-92,436
-92,987
-93,876
-95,281
-97,329
-100,016
-103,257
-106,761
-110,053
-112,767
-114,565
-115,096
-114,23
-112,016
-108,632
-104,655
-100,833
-97,783
-96,278
-97,083
-100,582
-106,973
-116,118
-127,229
-139,357
-151,421
-161,748
-168,446
-169,775
-163,934
-149,529
-125,849
-92,285
-48,698
4,067
64,549
130,774
200,125
269,897
337,464
399,814
454,087
497,981
529,615
547,735
551,816
541,807
518,121
481,928
434,918
379,14
316,99
251,029
183,817
117,798
55,322
-1,494
-50,964
-91,889
-123,615
-146,195
-160,099
-165,931
-164,699
-157,798
-146,761
-133,221
-118,669
-104,057
-90,208
-78,044
-68,208
-61,046
-56,539
-54,213
-53,506
-54,071
-55,465
-57,042
-58,171
-58,219
-56,869
-54,227
-50,5
-45,882
-40,642
-35,119
-29,713
-24,894
-20,917
-17,788
-15,447
-13,771
-12,617
-11,855
-11,3
-10,735
-10,04
-9,179
-8,14
-6,947
-5,604
-4,098
-2,436
-0,638
1,299
3,389
5,657
8,138
10,842
13,763
16,891
20,219
23,748
27,475
31,386
35,454
39,653
43,957
48,343
52,787
57,252
61,701
66,097
70,408
74,619
78,728
82,74
86,666
90,517
94,317
98,107
101,941
105,881
109,985
114,3
118,879
123,78
129,054
134,741
140,869
147,443
154,458
161,904
169,764
178,016
186,625
195,535
204,676
213,964
223,325
232,698
242,015
251,206
260,214
268,995
277,53
285,826
293,89
301,723
309,327
316,7
323,848
330,785
337,527
344,092
350,483
356,692
362,714
368,545
374,171
379,551
384,618
389,27
393,409
396,943
399,782
401,841
403,032
403,275
402,505
400,674
397,75
393,704
388,504
382,122
374,533
365,744
355,792
344,747
332,69
319,716
305,928
291,449
276,41
260,933
245,128
229,089
212,906
196,686
180,543
164,599
148,986
133,82
119,203
105,227
91,959
79,444
67,705
56,741
46,531
37,064
28,33
20,322
13,029
6,421
0,456
-4,916
-9,768
-14,172
-18,208
-21,962
-25,505
-28,879
-32,12
-35,238
-38,233
-41,115
-43,885
-46,546
-49,102
-51,549
-53,878
-56,084
-58,147
-60,042
-61,738
-63,193
-64,382
-65,295
-65,928
-66,291
-66,399
-66,267
-65,916
-65,372
-64,659
-63,797
-62,809
-61,712
-60,529
-59,286
-58,01
-56,734
-55,482
-54,273
-53,123
-52,043
-51,04
-50,122
-49,291
-48,543
-47,88
-47,3
-46,805
-46,395
-46,073
-45,834
-45,676
-45,595
-45,589
-45,652
-45,782
-45,975
-46,224
-46,528
-46,882
-47,282
-47,726
-48,207
-48,722
-49,265
-49,83
-50,413
-51,008
-51,61
-52,214
-52,816
-53,412
-53,998
-54,57
-55,127
-55,665
-56,183
-56,679
-57,152
-57,6
-58,023
-58,419
-58,79
-59,135
-59,455
-59,749
-60,019
-60,267
-60,493
-60,7
-60,888
-61,061
-61,219
-61,366
-61,502
-61,631
-61,755
-61,876
-61,996
-62,119
-62,245
-62,378
-62,519
-62,67
-62,834
-63,01
-63,202
-63,408
-63,631
-63,87
-64,126
-64,399
-64,689
-64,995
-65,316
-65,652
-66,001
-66,362
-66,733
-67,113
-67,5
-67,892
-68,287
-68,683
-69,078
-69,469
-69,854
-70,231
-70,597
-70,951
-71,29
-71,612
-71,915
-72,197
-72,456
-72,69
-72,898
-73,078
-73,23
-73,352
-73,443
-73,504
-73,534
-73,534
-73,503
-73,442
-73,353
-73,237
-73,095
-72,928
-72,739
-72,53
-72,303
-72,06
-71,804
-71,537
-71,261
-70,979
-70,694
-70,408
-70,124
-69,843
-69,569
-69,302
-69,046
-68,801
-68,57
-68,354
-68,154
-67,971
-67,807
-67,662
-67,536
-67,429
-67,341
-67,272
-67,22
-67,184
-67,163
-67,156
-67,159
-67,172
-67,191
-67,215
-67,24
-67,264
-67,285
-67,299
-67,304
-67,296
-67,274
-67,235
-67,177
-67,098
-66,997
-66,871
-66,721
-66,545
-66,343
-66,115
-65,861
-65,58
-65,274
-64,943
-64,588
-64,211
-63,814
-63,399
-62,968
-62,524
-62,07
-61,61
-61,147
-60,684
-60,226
-59,776
-59,338
-58,916
-58,514
-58,136
-57,787
-57,468
-57,185
-56,939
-56,733
-56,568
-56,446
-56,368
-56,332
-56,338
-56,384
-56,47
-56,593
-56,752
-56,944
-57,167
-57,418
-57,696
-57,996
-58,314
-58,643
-58,978
-59,312
-59,638
-59,948
-60,233
-60,486
-60,699
-60,867
-60,983
-61,041
-61,03
-60,942
-60,767
-60,501
-60,142
-59,687
-59,134
-58,486
-57,749
-56,937
-56,063
-55,134
-54,154
-53,118
-52,027
-50,881
-49,68
-48,427
-47,115
-45,737
-44,288
-42,769
-41,179
-39,512
-37,753
-35,874
-33,856
-31,694
-29,399
-26,991
-24,491
-21,924
-19,322
-16,728
-14,197
-11,779
-9,518
-7,446
-5,598
-4,013
-2,746
-1,862
-1,411
-1,426
-1,926
-2,912
-4,386
-6,335
-8,734
-11,541
-14,698
-18,155
-21,874
-25,826
-29,979
-34,292
-38,713
-43,171
-47,611
-51,982
-56,233
-60,328
-64,228
-67,911
-71,373
-74,618
-77,65
-80,464
-83,037
-85,339
-87,366
-89,11
-90,561
-91,761
-92,773
-93,704
-94,738
-96,03
-97,68
-99,768
-102,324
-105,281
-108,531
-111,847
-114,853
-117,197
-118,55
-118,682
-117,531
-115,179
-111,817
-107,812
-103,756
-100,288
-98,101
-97,861
-100,068
-104,818
-112,004
-120,702
-128,898
-135,549
-139,887
-141,856
-143,029
-141,461
-132,623
-112,118
-74,514
-20,111
45,045
115,33
184,166
248,114
307,935
362,704
410,964
450,758
478,862
493,535
494,481
481,87
456,552
419,873
373,406
319,099
259,228
196,159
132,204
69,526
10,187
-43,947
-91,323
-130,743
-161,457
-183,351
-196,708
-201,938
-199,806
-191,468
-178,288
-161,857
-143,771
-125,16
-107,017
-90,457
-76,338
-65,21
-57,229
-52,01
-48,959
-47,676
-47,657
-48,173
-48,507
-47,952
-46,147
-43,206
-39,394
-34,95
-30,177
-25,427
-21,1
-17,67
-15,374
-14,169
-13,917
-14,412
-15,446
-16,855
-18,432
-19,916
-21,131
-21,983
-22,418
-22,44
-22,035
-21,176
-19,87
-18,144
-16,033
-13,579
-10,815
-7,77
-4,479
-0,978
2,701
6,521
10,455
14,471
18,538
22,626
26,699
30,732
34,711
38,631
42,499
46,329
50,135
53,936
57,758
61,62
65,543
69,548
73,648
77,861
82,204
86,699
91,372
96,247
101,341
106,666
112,227
118,025
124,057
130,315
136,779
143,426
150,232
157,174
164,234
171,396
178,64
185,942
193,277
200,614
207,929
215,202
222,413
229,542
236,575
243,51
250,358
257,148
263,905
270,649
277,393
284,138
290,886
297,634
304,373
311,084
317,74
324,308
330,754
337,047
343,149
349,001
354,52
359,594
364,112
367,966
371,053
373,279
374,55
374,789
373,936
371,955
368,828
364,538
359,068
352,396
344,508
335,415
325,162
313,823
301,483
288,243
274,214
259,521
244,307
228,697
212,805
196,728
180,551
164,372
148,307
132,477
117,016
102,043
87,659
73,954
61,01
48,879
37,593
27,157
17,547
8,746
0,746
-6,465
-12,894
-18,569
-23,538
-27,861
-31,613
-34,876
-37,733
-40,275
-42,596
-44,767
-46,836
-48,834
-50,769
-52,65
-54,493
-56,308
-58,103
-59,878
-61,623
-63,329
-64,98
-66,55
-68,008
-69,317
-70,431
-71,323
-71,981
-72,403
-72,599
-72,581
-72,361
-71,956
-71,387
-70,675
-69,84
-68,9
-67,871
-66,773
-65,631
-64,471
-63,322
-62,205
-61,134
-60,12
-59,17
-58,288
-57,476
-56,733
-56,054
-55,436
-54,876
-54,375
-53,932
-53,545
-53,213
-52,931
-52,695
-52,502
-52,349
-52,233
-52,151
-52,101
-52,081
-52,09
-52,126
-52,188
-52,275
-52,384
-52,514
-52,661
-52,824
-53,002
-53,191
-53,391
-53,6
-53,817
-54,043
-54,275
-54,515
-54,762
-55,017
-55,278
-55,547
-55,823
-56,107
-56,399
-56,699
-57,008
-57,326
-57,654
-57,99
-58,338
-58,695
-59,063
-59,443
-59,833
-60,235
-60,649
-61,074
-61,51
-61,958
-62,417
-62,888
-63,37
-63,864
-64,368
-64,883
-65,408
-65,943
-66,487
-67,04
-67,601
-68,169
-68,745
-69,326
-69,913
-70,505
-71,102
-71,702
-72,305
-72,91
-73,516
-74,123
-74,73
-75,336
-75,94
-76,543
-77,142
-77,738
-78,33
-78,916
-79,497
-80,071
-80,638
-81,196
-81,745
-82,283
-82,811
-83,327
-83,83
-84,32
-84,796
-85,256
-85,701
-86,13
-86,541
-86,934
-87,309
-87,664
-87,999
-88,314
-88,608
-88,881
-89,132
-89,362
-89,57
-89,755
-89,919
-90,06
-90,18
-90,278
-90,355
-90,413
-90,451
-90,473
-90,479
-90,471
-90,451
-90,42
-90,382
-90,337
-90,288
-90,236
-90,184
-90,135
-90,089
-90,05
-90,02
-90,001
-89,994
-90,004
-90,03
-90,075
-90,142
-90,231
-90,345
-90,484
-90,651
-90,847
-91,072
-91,329
-91,617
-91,936
-92,285
-92,665
-93,071
-93,503
-93,957
-94,429
-94,916
-95,414
-95,918
-96,426
-96,933
-97,434
-97,927
-98,407
-98,87
-99,31
-99,72
-100,095
-100,429
-100,714
-100,944
-101,112
-101,21
-101,231
-101,174
-101,031
-100,798
-100,467
-100,029
-99,478
-98,813
-98,032
-97,135
-96,122
-94,998
-93,772
-92,459
-91,074
-89,627
-88,121
-86,556
-84,932
-83,252
-81,519
-79,735
-77,895
-75,995
-74,032
-72,008
-69,924
-67,776
-65,548
-63,216
-60,759
-58,173
-55,465
-52,654
-49,758
-46,801
-43,813
-40,834
-37,918
-35,115
-32,466
-30,002
-27,752
-25,751
-24,048
-22,707
-21,779
-21,298
-21,291
-21,77
-22,744
-24,215
-26,164
-28,553
-31,324
-34,423
-37,804
-41,436
-45,286
-49,32
-53,491
-57,735
-61,989
-66,197
-70,295
-74,223
-77,918
-81,32
-84,393
-87,134
-89,555
-91,665
-93,47
-94,953
-96,103
-96,929
-97,455
-97,706
-97,692
-97,462
-97,132
-96,888
-96,936
-97,418
-98,356
-99,738
-101,646
-104,108
-107,014
-110,083
-112,876
-115,083
-116,704
-117,83
-118,38
-118,3
-117,663
-116,832
-116,577
-117,527
-119,809
-123,322
-127,965
-133,497
-139,548
-145,309
-149,263
-149,849
-145,875
-136,343
-120,471
-97,757
-67,812
-30,75
12,476
60,565
112,087
165,403
218,863
270,81
319,349
362,663
399,271
427,839
447,194
456,44
454,884
442,111
418,21
383,73
339,638
287,385
228,944
166,659
103,024
40,657
-17,862
-70,251
-114,601
-149,505
-174,454
-189,639
-195,567
-193,244
-184,123
-169,791
-152,071
-132,844
-113,381
-94,605
-77,509
-62,776
-50,825
-41,965
-35,952
-32,186
-30,35
-30,132
-30,95
-32,286
-33,54
-34,038
-33,61
-32,403
-30,47
-27,947
-25,08
-22,06
-19,25
-17,113
-15,799
-15,264
-15,422
-16,08
-17,075
-18,302
-19,552
-20,563
-21,171
-21,275
-20,845
-19,93
-18,558
-16,743
-14,528
-11,96
-9,091
-5,976
-2,655
0,848
4,513
8,325
12,267
16,308
20,415
24,546
28,675
32,789
36,881
40,947
44,99
49,006
53,001
56,99
60,986
65,002
69,038
73,08
77,111
81,121
85,121
89,133
93,187
97,298
101,487
105,777
110,195
114,779
119,556
124,531
129,705
135,083
140,677
146,521
152,655
159,101
165,864
172,928
180,273
187,885
195,738
203,794
212,001
220,296
228,638
237,017
245,429
253,864
262,301
270,697
279,005
287,193
295,233
303,1
310,763
318,18
325,322
332,175
338,734
344,999
350,938
356,474
361,531
366,027
369,885
373,04
375,422
376,951
377,562
377,211
375,859
373,492
370,079
365,583
359,965
353,185
345,239
336,161
326,005
314,837
302,747
289,834
276,215
262,026
247,385
232,399
217,171
201,797
186,388
171,069
155,973
141,24
127
113,364
100,419
88,229
76,831
66,24
56,45
47,434
39,169
31,637
24,814
18,671
13,172
8,262
3,873
-0,079
-3,689
-7,049
-10,236
-13,306
-16,297
-19,232
-22,12
-24,957
-27,739
-30,457
-33,105
-35,676
-38,159
-40,543
-42,805
-44,91
-46,82
-48,489
-49,887
-50,996
-51,808
-52,324
-52,555
-52,515
-52,228
-51,718
-51,012
-50,13
-49,095
-47,925
-46,645
-45,282
-43,866
-42,428
-40,995
-39,586
-38,221
-36,911
-35,668
-34,499
-33,407
-32,393
-31,459
-30,607
-29,839
-29,16
-28,57
-28,07
-27,66
-27,338
-27,103
-26,953
-26,886
-26,899
-26,989
-27,155
-27,392
-27,698
-28,071
-28,505
-28,997
-29,54
-30,129
-30,76
-31,426
-32,122
-32,842
-33,581
-34,335
-35,098
-35,866
-36,635
-37,401
-38,159
-38,907
-39,641
-40,359
-41,057
-41,733
-42,386
-43,012
-43,611
-44,183
-44,726
-45,24
-45,727
-46,186
-46,62
-47,029
-47,415
-47,781
-48,129
-48,461
-48,781
-49,09
-49,393
-49,691
-49,988
-50,287
-50,591
-50,902
-51,224
-51,557
-51,905
-52,269
-52,651
-53,052
-53,475
-53,92
-54,388
-54,879
-55,396
-55,936
-56,501
-57,09
-57,702
-58,337
-58,991
-59,665
-60,356
-61,062
-61,781
-62,509
-63,245
-63,986
-64,728
-65,468
-66,204
-66,932
-67,65
-68,354
-69,042
-69,712
-70,36
-70,985
-71,586
-72,159
-72,704
-73,22
-73,705
-74,16
-74,583
-74,974
-75,334
-75,663
-75,961
-76,229
-76,469
-76,682
-76,868
-77,031
-77,171
-77,291
-77,393
-77,479
-77,552
-77,615
-77,669
-77,718
-77,764
-77,81
-77,858
-77,911
-77,972
-78,042
-78,124
-78,221
-78,333
-78,464
-78,614
-78,784
-78,975
-79,188
-79,423
-79,68
-79,959
-80,259
-80,581
-80,922
-81,283
-81,663
-82,059
-82,472
-82,898
-83,337
-83,786
-84,244
-84,708
-85,177
-85,648
-86,119
-86,588
-87,052
-87,508
-87,953
-88,385
-88,799
-89,192
-89,56
-89,9
-90,206
-90,476
-90,706
-90,893
-91,037
-91,133
-91,18
-91,176
-91,119
-91,007
-90,838
-90,606
-90,31
-89,946
-89,51
-89,002
-88,419
-87,76
-87,022
-86,208
-85,316
-84,345
-83,294
-82,156
-80,93
-79,616
-78,218
-76,744
-75,202
-73,603
-71,955
-70,273
-68,567
-66,843
-65,102
-63,339
-61,547
-59,726
-57,88
-56,02
-54,157
-52,292
-50,428
-48,565
-46,696
-44,816
-42,918
-40,983
-39,005
-36,994
-34,968
-32,965
-31,028
-29,189
-27,472
-25,901
-24,487
-23,251
-22,212
-21,382
-20,788
-20,463
-20,438
-20,759
-21,456
-22,534
-23,985
-25,785
-27,893
-30,274
-32,899
-35,735
-38,766
-41,98
-45,358
-48,891
-52,54
-56,248
-59,954
-63,594
-67,115
-70,488
-73,685
-76,675
-79,444
-81,977
-84,257
-86,286
-88,034
-89,445
-90,51
-91,255
-91,784
-92,29
-92,957
-93,909
-95,241
-97,016
-99,179
-101,608
-104,069
-106,164
-107,522
-107,858
-107,018
-105,033
-102,163
-98,802
-95,411
-92,609
-91,001
-91,2
-93,693
-98,644
-105,887
-114,972
-125,239
-135,845
-145,792
-153,766
-158,296
-158,062
-151,866
-138,781
-118,253
-89,923
-53,748
-10,284
39,411
93,96
151,564
210,247
268,094
322,992
372,787
415,546
449,535
473,283
485,765
486,35
474,65
450,777
415,41
369,702
315,335
254,499
189,664
123,377
58,352
-2,689
-57,354
-103,677
-140,262
-166,579
-182,727
-189,118
-186,728
-177,172
-162,339
-144,26
-124,918
-105,776
-88,003
-72,83
-61,146
-53,186
-48,719
-47,121
-47,539
-49,322
-51,853
-54,21
-55,51
-55,279
-53,404
-50,109
-45,842
-40,965
-35,812
-30,911
-26,82
-23,853
-22,125
-21,548
-21,88
-22,914
-24,461
-26,256
-28,025
-29,582
-30,804
-31,629
-32,049
-32,035
-31,559
-30,632
-29,277
-27,523
-25,398
-22,931
-20,149
-17,094
-13,812
-10,349
-6,736
-2,993
0,86
4,803
8,809
12,843
16,882
20,912
24,922
28,911
32,881
36,837
40,791
44,759
48,76
52,811
56,919
61,081
65,29
69,531
73,806
78,132
82,523
86,998
91,576
96,273
101,112
106,12
111,308
116,683
122,246
127,991
133,929
140,076
146,452
153,09
159,998
167,171
174,606
182,289
190,194
198,299
206,563
214,94
223,414
231,971
240,6
249,297
258,037
266,789
275,521
284,181
292,725
301,111
309,283
317,191
324,8
332,069
338,968
345,469
351,5
356,989
361,863
366,032
369,426
371,976
373,606
374,263
373,916
372,536
370,122
366,674
362,179
356,634
350,035
342,379
333,702
324,054
313,486
302,073
289,9
277,061
263,676
249,853
235,676
221,233
206,596
191,835
177,042
162,312
147,742
133,443
119,507
106,022
93,076
80,74
69,061
58,067
47,757
38,125
29,177
20,914
13,337
6,444
0,211
-5,396
-10,42
-14,921
-18,966
-22,625
-25,978
-29,103
-32,058
-34,882
-37,596
-40,211
-42,74
-45,197
-47,591
-49,931
-52,213
-54,433
-56,583
-58,649
-60,606
-62,427
-64,076
-65,514
-66,717
-67,675
-68,384
-68,855
-69,097
-69,121
-68,942
-68,58
-68,055
-67,384
-66,585
-65,674
-64,671
-63,599
-62,484
-61,355
-60,234
-59,136
-58,076
-57,061
-56,099
-55,194
-54,348
-53,56
-52,83
-52,159
-51,55
-51,004
-50,524
-50,11
-49,76
-49,474
-49,249
-49,085
-48,98
-48,933
-48,941
-49,004
-49,121
-49,29
-49,511
-49,781
-50,098
-50,459
-50,86
-51,298
-51,77
-52,273
-52,803
-53,356
-53,93
-54,522
-55,13
-55,75
-56,38
-57,017
-57,66
-58,305
-58,951
-59,594
-60,232
-60,864
-61,486
-62,097
-62,695
-63,279
-63,847
-64,398
-64,931
-65,445
-65,94
-66,415
-66,87
-67,305
-67,72
-68,115
-68,49
-68,847
-69,185
-69,505
-69,808
-70,095
-70,367
-70,624
-70,867
-71,097
-71,315
-71,523
-71,721
-71,91
-72,091
-72,266
-72,437
-72,604
-72,769
-72,933
-73,097
-73,263
-73,432
-73,604
-73,781
-73,963
-74,15
-74,343
-74,543
-74,749
-74,961
-75,18
-75,406
-75,637
-75,874
-76,116
-76,363
-76,614
-76,869
-77,126
-77,386
-77,648
-77,91
-78,173
-78,434
-78,694
-78,951
-79,204
-79,452
-79,694
-79,928
-80,152
-80,367
-80,57
-80,761
-80,938
-81,1
-81,247
-81,378
-81,492
-81,59
-81,669
-81,732
-81,777
-81,804
-81,814
-81,808
-81,785
-81,746
-81,693
-81,624
-81,543
-81,448
-81,342
-81,224
-81,097
-80,96
-80,815
-80,663
-80,506
-80,344
-80,179
-80,013
-79,846
-79,68
-79,517
-79,357
-79,202
-79,053
-78,91
-78,775
-78,649
-78,532
-78,425
-78,328
-78,241
-78,164
-78,096
-78,038
-77,988
-77,946
-77,911
-77,882
-77,858
-77,837
-77,819
-77,802
-77,784
-77,765
-77,742
-77,715
-77,682
-77,641
-77,592
-77,533
-77,463
-77,382
-77,288
-77,182
-77,062
-76,928
-76,78
-76,618
-76,442
-76,252
-76,048
-75,831
-75,601
-75,361
-75,112
-74,855
-74,592
-74,326
-74,058
-73,792
-73,529
-73,272
-73,025
-72,79
-72,571
-72,369
-72,188
-72,031
-71,9
-71,797
-71,724
-71,681
-71,67
-71,689
-71,739
-71,82
-71,93
-72,068
-72,234
-72,426
-72,644
-72,884
-73,146
-73,426
-73,721
-74,025
-74,335
-74,644
-74,946
-75,235
-75,502
-75,742
-75,946
-76,11
-76,224
-76,281
-76,27
-76,181
-76,009
-75,748
-75,396
-74,951
-74,412
-73,78
-73,064
-72,271
-71,408
-70,481
-69,487
-68,425
-67,296
-66,1
-64,84
-63,514
-62,111
-60,618
-59,027
-57,327
-55,508
-53,556
-51,446
-49,158
-46,682
-44,014
-41,165
-38,152
-34,992
-31,708
-28,33
-24,898
-21,466
-18,095
-14,835
-11,739
-8,856
-6,239
-3,958
-2,07
-0,62
0,357
0,844
0,831
0,313
-0,708
-2,207
-4,153
-6,5
-9,193
-12,188
-15,445
-18,92
-22,567
-26,329
-30,149
-33,982
-37,78
-41,502
-45,104
-48,548
-51,802
-54,855
-57,708
-60,357
-62,794
-65,003
-66,956
-68,63
-70,032
-71,16
-71,994
-72,562
-72,926
-73,191
-73,554
-74,177
-75,101
-76,351
-77,955
-79,857
-81,992
-84,186
-86,022
-87,123
-87,342
-86,631
-85,036
-82,728
-79,825
-76,613
-73,735
-71,84
-71,417
-72,851
-76,285
-81,656
-88,298
-94,72
-99,457
-101,564
-101,879
-102,455
-103,333
-101,622
-91,111
-64,911
-20,471
39,184
106,54
173,801
236,375
293,264
345,936
394,862
438,699
475,257
502,023
517,565
521,616
514,368
496,306
468,171
430,925
385,837
334,385
278,315
219,558
159,903
101,304
45,827
-4,702
-48,675
-84,767
-112,371
-131,375
-141,709
-143,852
-138,963
-128,474
-114,138
-97,83
-80,945
-64,67
-50,38
-39,112
-31,279
-26,867
-25,362
-25,943
-27,953
-30,73
-33,309
-34,774
-34,583
-32,514
-28,705
-23,551
-17,43
-10,735
-4,049
2,009
7,058
10,906
13,543
15,121
15,794
15,72
15,153
14,373
13,546
12,767
12,069
11,439
10,908
10,517
10,272
10,18
10,257
10,532
11,059
11,881
13,002
14,408
16,074
17,978
20,113
22,473
25,043
27,806
30,736
33,814
37,031
40,372
43,816
47,337
50,904
54,497
58,119
61,777
65,484
69,255
73,098
77,028
81,066
85,23
89,541
94,018
98,674
103,523
108,581
113,866
119,393
125,172
131,198
137,457
143,936
150,616
157,48
164,514
171,694
178,996
186,395
193,862
201,374
208,913
216,457
223,985
231,481
238,931
246,338
253,723
261,105
268,495
275,903
283,329
290,773
298,238
305,722
313,214
320,692
328,124
335,477
342,724
349,828
356,74
363,387
369,662
375,458
380,676
385,213
388,974
391,864
393,78
394,639
394,382
392,963
390,35
386,509
381,4
374,988
367,265
358,252
348,006
336,605
324,132
310,69
296,399
281,392
265,82
249,82
233,505
216,989
200,389
183,83
167,453
151,411
135,834
120,842
106,539
92,998
80,28
68,419
57,418
47,26
37,914
29,349
21,544
14,472
8,092
2,354
-2,81
-7,486
-11,756
-15,709
-19,437
-23,012
-26,489
-29,907
-33,28
-36,608
-39,889
-43,115
-46,277
-49,37
-52,379
-55,288
-58,077
-60,716
-63,171
-65,406
-67,372
-69,04
-70,392
-71,42
-72,13
-72,536
-72,652
-72,501
-72,109
-71,501
-70,701
-69,733
-68,618
-67,383
-66,054
-64,663
-63,243
-61,822
-60,419
-59,055
-57,74
-56,486
-55,302
-54,191
-53,155
-52,196
-51,315
-50,517
-49,805
-49,181
-48,647
-48,202
-47,843
-47,571
-47,383
-47,278
-47,254
-47,307
-47,436
-47,637
-47,908
-48,247
-48,649
-49,109
-49,623
-50,185
-50,789
-51,431
-52,105
-52,804
-53,524
-54,259
-55,006
-55,759
-56,513
-57,265
-58,011
-58,747
-59,469
-60,175
-60,86
-61,524
-62,162
-62,774
-63,357
-63,91
-64,431
-64,922
-65,381
-65,808
-66,205
-66,571
-66,909
-67,219
-67,504
-67,764
-68,001
-68,219
-68,418
-68,602
-68,772
-68,932
-69,082
-69,227
-69,367
-69,505
-69,642
-69,782
-69,924
-70,071
-70,224
-70,384
-70,553
-70,732
-70,92
-71,12
-71,332
-71,555
-71,789
-72,034
-72,291
-72,556
-72,831
-73,114
-73,402
-73,696
-73,993
-74,291
-74,589
-74,885
-75,176
-75,461
-75,738
-76,004
-76,258
-76,498
-76,722
-76,929
-77,117
-77,285
-77,433
-77,558
-77,66
-77,739
-77,795
-77,827
-77,835
-77,819
-77,78
-77,718
-77,633
-77,528
-77,402
-77,258
-77,096
-76,918
-76,725
-76,52
-76,304
-76,08
-75,848
-75,611
-75,372
-75,131
-74,892
-74,655
-74,423
-74,197
-73,98
-73,771
-73,573
-73,386
-73,212
-73,05
-72,902
-72,767
-72,645
-72,537
-72,442
-72,359
-72,289
-72,231
-72,184
-72,147
-72,119
-72,099
-72,087
-72,081
-72,08
-72,083
-72,09
-72,099
-72,109
-72,119
-72,128
-72,136
-72,141
-72,142
-72,14
-72,133
-72,121
-72,104
-72,082
-72,054
-72,021
-71,984
-71,943
-71,898
-71,85
-71,8
-71,748
-71,696
-71,645
-71,595
-71,547
-71,502
-71,46
-71,423
-71,391
-71,364
-71,344
-71,33
-71,322
-71,321
-71,328
-71,341
-71,362
-71,39
-71,424
-71,466
-71,514
-71,568
-71,629
-71,695
-71,767
-71,843
-71,924
-72,008
-72,095
-72,185
-72,277
-72,37
-72,465
-72,56
-72,655
-72,75
-72,846
-72,941
-73,037
-73,133
-73,23
-73,327
-73,427
-73,529
-73,635
-73,744
-73,858
-73,979
-74,105
-74,239
-74,381
-74,532
-74,692
-74,861
-75,04
-75,229
-75,427
-75,635
-75,852
-76,077
-76,31
-76,549
-76,793
-77,04
-77,289
-77,538
-77,784
-78,024
-78,256
-78,476
-78,682
-78,871
-79,037
-79,178
-79,289
-79,366
-79,405
-79,4
-79,347
-79,241
-79,079
-78,854
-78,564
-78,204
-77,771
-77,26
-76,668
-75,993
-75,231
-74,381
-73,442
-72,411
-71,289
-70,076
-68,773
-67,38
-65,9
-64,335
-62,69
-60,966
-59,17
-57,305
-55,379
-53,396
-51,366
-49,294
-47,191
-45,066
-42,932
-40,799
-38,68
-36,589
-34,54
-32,547
-30,625
-28,786
-27,044
-25,413
-23,904
-22,53
-21,306
-20,242
-19,353
-18,65
-18,143
-17,843
-17,757
-17,89
-18,245
-18,824
-19,632
-20,672
-21,951
-23,473
-25,242
-27,259
-29,521
-32,018
-34,736
-37,648
-40,725
-43,935
-47,243
-50,618
-54,028
-57,436
-60,806
-64,093
-67,249
-70,227
-72,98
-75,466
-77,657
-79,546
-81,145
-82,489
-83,623
-84,586
-85,436
-86,239
-87,056
-87,956
-89,012
-90,296
-91,926
-94,049
-96,746
-100,047
-103,888
-108,064
-112,321
-116,391
-119,902
-122,448
-123,798
-123,842
-122,672
-120,79
-118,868
-117,515
-117,367
-118,321
-119,271
-119,293
-117,85
-115,822
-115,055
-115,232
-112,855
-100,863
-71,848
-22,861
43,085
117,584
191,746
260,018
320,682
375,051
423,719
465,276
497,547
518,152
526,024
521,701
506,034
479,97
444,653
401,441
351,952
297,968
241,281
183,319
125,524
69,676
17,428
-29,79
-70,784
-104,767
-131,301
-149,944
-160,492
-163,355
-159,279
-149,38
-135,073
-117,759
-98,814
-79,725
-62,001
-46,903
-35,401
-27,906
-24,285
-24,135
-26,842
-31,6
-37,418
-43,185
-47,839
-50,746
-51,722
-50,849
-48,396
-44,723
-40,266
-35,584
-31,265
-27,653
-24,834
-22,754
-21,241
-20,116
-19,223
-18,373
-17,367
-16,1
-14,543
-12,701
-10,623
-8,358
-5,936
-3,405
-0,818
1,793
4,41
7,013
9,599
12,16
14,687
17,196
19,712
22,251
24,82
27,409
30
32,584
35,163
37,733
40,299
42,864
45,437
48,04
50,696
53,428
56,262
59,221
62,322
65,595
69,073
72,796
76,817
81,183
85,93
91,096
96,708
102,783
109,325
116,328
123,772
131,629
139,855
148,398
157,196
166,188
175,316
184,522
193,741
202,91
211,971
220,869
229,558
238,005
246,181
254,066
261,659
268,968
276,021
282,868
289,561
296,142
302,647
309,091
315,485
321,834
328,133
334,37
340,525
346,567
352,464
358,181
363,663
368,843
373,635
377,92
381,578
384,498
386,573
387,725
387,898
387,046
385,139
382,161
378,101
372,959
366,738
359,439
351,076
341,676
331,291
320,012
307,945
295,207
281,926
268,208
254,144
239,823
225,321
210,712
196,072
181,479
167,007
152,753
138,819
125,302
112,292
99,844
87,984
76,726
66,063
55,995
46,527
37,66
29,395
21,731
14,66
8,17
2,244
-3,161
-8,108
-12,666
-16,914
-20,908
-24,681
-28,258
-31,649
-34,865
-37,918
-40,814
-43,554
-46,146
-48,593
-50,902
-53,08
-55,118
-56,995
-58,681
-60,143
-61,357
-62,316
-63,019
-63,47
-63,682
-63,667
-63,444
-63,039
-62,472
-61,762
-60,925
-59,975
-58,93
-57,815
-56,656
-55,48
-54,311
-53,167
-52,062
-51,008
-50,014
-49,085
-48,224
-47,429
-46,699
-46,035
-45,439
-44,912
-44,454
-44,064
-43,741
-43,481
-43,281
-43,139
-43,051
-43,015
-43,026
-43,082
-43,179
-43,318
-43,494
-43,704
-43,946
-44,217
-44,513
-44,83
-45,167
-45,521
-45,887
-46,266
-46,653
-47,049
-47,451
-47,859
-48,272
-48,688
-49,108
-49,53
-49,955
-50,381
-50,809
-51,237
-51,666
-52,096
-52,525
-52,953
-53,382
-53,809
-54,236
-54,662
-55,087
-55,511
-55,933
-56,352
-56,768
-57,18
-57,587
-57,989
-58,384
-58,771
-59,149
-59,516
-59,872
-60,214
-60,543
-60,855
-61,149
-61,426
-61,682
-61,918
-62,133
-62,326
-62,497
-62,645
-62,772
-62,875
-62,958
-63,018
-63,058
-63,078
-63,079
-63,063
-63,03
-62,982
-62,921
-62,848
-62,766
-62,676
-62,581
-62,483
-62,384
-62,286
-62,192
-62,105
-62,025
-61,957
-61,902
-61,863
-61,841
-61,839
-61,858
-61,9
-61,966
-62,056
-62,173
-62,315
-62,484
-62,678
-62,899
-63,145
-63,416
-63,71
-64,027
-64,365
-64,722
-65,097
-65,488
-65,893
-66,309
-66,735
-67,169
-67,608
-68,05
-68,494
-68,936
-69,374
-69,807
-70,232
-70,646
-71,048
-71,435
-71,806
-72,16
-72,493
-72,807
-73,098
-73,367
-73,613
-73,835
-74,034
-74,208
-74,36
-74,488
-74,595
-74,681
-74,746
-74,793
-74,823
-74,836
-74,834
-74,819
-74,791
-74,752
-74,704
-74,646
-74,58
-74,507
-74,429
-74,346
-74,258
-74,168
-74,076
-73,982
-73,888
-73,793
-73,699
-73,605
-73,511
-73,419
-73,327
-73,236
-73,146
-73,055
-72,964
-72,872
-72,778
-72,681
-72,58
-72,474
-72,364
-72,248
-72,125
-71,998
-71,864
-71,726
-71,583
-71,436
-71,287
-71,136
-70,984
-70,834
-70,686
-70,542
-70,403
-70,272
-70,15
-70,038
-69,939
-69,856
-69,788
-69,739
-69,711
-69,705
-69,723
-69,767
-69,838
-69,939
-70,071
-70,236
-70,435
-70,668
-70,937
-71,241
-71,579
-71,949
-72,349
-72,776
-73,228
-73,7
-74,19
-74,694
-75,207
-75,726
-76,248
-76,767
-77,278
-77,776
-78,254
-78,706
-79,125
-79,504
-79,836
-80,112
-80,325
-80,47
-80,541
-80,531
-80,433
-80,237
-79,935
-79,525
-79,002
-78,367
-77,62
-76,763
-75,803
-74,75
-73,617
-72,413
-71,15
-69,828
-68,45
-67,019
-65,542
-64,022
-62,462
-60,853
-59,186
-57,454
-55,648
-53,762
-51,783
-49,686
-47,453
-45,073
-42,541
-39,871
-37,081
-34,191
-31,223
-28,211
-25,193
-22,226
-19,371
-16,68
-14,203
-11,987
-10,084
-8,561
-7,476
-6,872
-6,782
-7,219
-8,18
-9,666
-11,662
-14,141
-17,064
-20,379
-24,022
-27,943
-32,097
-36,437
-40,916
-45,469
-50,025
-54,525
-58,912
-63,143
-67,188
-71,025
-74,63
-77,988
-81,084
-83,898
-86,423
-88,648
-90,537
-92,053
-93,196
-94,007
-94,587
-95,103
-95,69
-96,455
-97,535
-99,029
-100,9
-103,028
-105,172
-106,953
-108,101
-108,391
-107,484
-105,206
-101,658
-97,101
-92,073
-87,285
-83,235
-80,472
-79,848
-81,941
-86,984
-94,904
-104,993
-116,254
-127,814
-138,41
-146,191
-149,381
-146,247
-135,291
-115,849
-87,574
-50,229
-4,28
49,041
108,07
170,563
234,01
296,213
354,881
407,67
452,566
487,874
512,341
525,318
526,613
516,301
494,833
462,99
421,854
372,903
317,76
258,205
196,141
133,408
71,939
13,727
-39,384
-85,83
-124,295
-153,937
-174,426
-185,63
-187,927
-182,238
-169,823
-152,288
-131,495
-109,19
-86,862
-66,045
-47,97
-33,457
-23,034
-16,663
-13,803
-13,806
-16
-19,502
-23,479
-27,186
-29,901
-31,349
-31,631
-30,934
-29,534
-27,804
-26,078
-24,726
-24,15
-24,467
-25,581
-27,331
-29,455
-31,708
-33,878
-35,719
-36,984
-37,55
-37,381
-36,495
-34,961
-32,834
-30,155
-26,992
-23,42
-19,505
-15,301
-10,858
-6,224
-1,456
3,375
8,21
13,008
17,741
22,397
26,972
31,458
35,856
40,176
44,422
48,594
52,683
56,666
60,531
64,275
67,901
71,422
74,851
78,197
81,476
84,707
87,904
91,089
94,278
97,481
100,725
104,046
107,486
111,109
114,973
119,125
123,618
128,497
133,794
139,531
145,712
152,329
159,376
166,844
174,72
183
191,659
200,671
210,007
219,625
229,475
239,507
249,657
259,855
270,045
280,181
290,223
300,139
309,885
319,406
328,65
337,558
346,07
354,125
361,647
368,563
374,805
380,305
385,011
388,875
391,841
393,846
394,831
394,745
393,555
391,244
387,806
383,239
377,55
370,756
362,882
353,974
344,079
333,255
321,563
309,068
295,857
282,027
267,687
252,941
237,885
222,605
207,183
191,705
176,264
160,961
145,899
131,173
116,87
103,075
89,867
77,317
65,475
54,365
43,988
34,345
25,433
17,253
9,802
3,063
-2,996
-8,425
-13,285
-17,638
-21,553
-25,103
-28,367
-31,423
-34,334
-37,135
-39,847
-42,483
-45,057
-47,585
-50,077
-52,535
-54,953
-57,317
-59,611
-61,817
-63,911
-65,862
-67,635
-69,192
-70,508
-71,575
-72,395
-72,976
-73,329
-73,464
-73,395
-73,143
-72,729
-72,173
-71,492
-70,703
-69,826
-68,885
-67,906
-66,916
-65,936
-64,979
-64,056
-63,175
-62,343
-61,562
-60,833
-60,156
-59,528
-58,951
-58,427
-57,958
-57,546
-57,189
-56,887
-56,637
-56,438
-56,289
-56,187
-56,132
-56,122
-56,155
-56,231
-56,348
-56,506
-56,702
-56,933
-57,196
-57,489
-57,809
-58,151
-58,512
-58,888
-59,277
-59,676
-60,08
-60,488
-60,896
-61,301
-61,7
-62,089
-62,466
-62,826
-63,168
-63,487
-63,78
-64,045
-64,279
-64,48
-64,646
-64,774
-64,863
-64,913
-64,921
-64,888
-64,812
-64,694
-64,535
-64,334
-64,092
-63,811
-63,493
-63,138
-62,751
-62,332
-61,884
-61,411
-60,915
-60,4
-59,87
-59,328
-58,778
-58,224
-57,672
-57,125
-56,589
-56,067
-55,564
-55,085
-54,635
-54,216
-53,834
-53,492
-53,194
-52,942
-52,74
-52,59
-52,494
-52,454
-52,472
-52,547
-52,68
-52,872
-53,122
-53,428
-53,79
-54,206
-54,674
-55,19
-55,752
-56,357
-57,001
-57,679
-58,387
-59,121
-59,876
-60,646
-61,426
-62,211
-62,995
-63,774
-64,542
-65,295
-66,026
-66,732
-67,408
-68,05
-68,654
-69,217
-69,736
-70,208
-70,631
-71,004
-71,325
-71,593
-71,808
-71,971
-72,082
-72,141
-72,151
-72,114
-72,031
-71,906
-71,741
-71,54
-71,307
-71,045
-70,758
-70,451
-70,129
-69,794
-69,453
-69,108
-68,765
-68,428
-68,1
-67,785
-67,488
-67,21
-66,956
-66,728
-66,527
-66,357
-66,219
-66,114
-66,043
-66,005
-66,002
-66,032
-66,096
-66,192
-66,319
-66,475
-66,658
-66,867
-67,098
-67,35
-67,62
-67,906
-68,205
-68,514
-68,831
-69,155
-69,481
-69,809
-70,136
-70,459
-70,778
-71,09
-71,393
-71,687
-71,969
-72,239
-72,496
-72,739
-72,968
-73,183
-73,385
-73,573
-73,748
-73,912
-74,064
-74,206
-74,34
-74,466
-74,586
-74,702
-74,813
-74,922
-75,028
-75,132
-75,233
-75,33
-75,422
-75,508
-75,587
-75,656
-75,715
-75,762
-75,797
-75,818
-75,824
-75,812
-75,781
-75,726
-75,646
-75,536
-75,393
-75,21
-74,984
-74,709
-74,384
-74,002
-73,56
-73,05
-72,465
-71,799
-71,05
-70,217
-69,3
-68,301
-67,225
-66,083
-64,888
-63,653
-62,39
-61,109
-59,813
-58,513
-57,214
-55,922
-54,643
-53,379
-52,123
-50,866
-49,598
-48,298
-46,948
-45,523
-43,988
-42,322
-40,506
-38,531
-36,4
-34,114
-31,684
-29,129
-26,472
-23,746
-20,997
-18,279
-15,647
-13,177
-10,937
-8,997
-7,44
-6,33
-5,719
-5,647
-6,137
-7,201
-8,846
-11,066
-13,843
-17,151
-20,946
-25,172
-29,766
-34,647
-39,73
-44,931
-50,147
-55,287
-60,271
-65,033
-69,524
-73,71
-77,552
-81,011
-84,053
-86,644
-88,764
-90,416
-91,603
-92,331
-92,647
-92,636
-92,436
-92,243
-92,233
-92,53
-93,233
-94,403
-96,005
-97,96
-100,075
-102,02
-103,447
-104,012
-103,473
-101,754
-98,949
-95,278
-91,105
-86,968
-83,553
-81,74
-82,21
-85,346
-91,211
-99,446
-109,475
-120,447
-130,984
-139,174
-143,106
-140,96
-131,217
-112,959
-85,453
-48,369
-2,263
51,479
110,95
173,729
237,224
298,962
356,151
406,039
446,376
475,38
491,803
495,057
485,02
461,986
427,005
381,701
328,064
268,45
205,415
141,52
79,243
20,938
-31,367
-76,127
-112,35
-139,625
-158,147
-168,51
-171,464
-168,09
-159,825
-148,16
-134,502
-120,082
-105,773
-92,304
-80,543
-71,131
-64,209
-59,623
-57
-55,858
-55,832
-56,495
-57,097
-56,885
-55,462
-52,706
-48,741
-43,853
-38,282
-32,297
-26,374
-21,022
-16,526
-12,992
-10,365
-8,471
-7,159
-6,283
-5,622
-4,952
-4,148
-3,149
-1,947
-0,566
0,992
2,725
4,609
6,612
8,705
10,861
13,067
15,295
17,507
19,666
21,737
23,704
25,576
27,358
29,053
30,666
32,198
33,666
35,095
36,507
37,93
39,401
40,965
42,682
44,617
46,82
49,344
52,237
55,524
59,234
63,39
68,006
73,092
78,65
84,67
91,142
98,051
105,366
113,05
121,049
129,304
137,77
146,395
155,125
163,914
172,713
181,471
190,153
198,725
207,158
215,432
223,527
231,424
239,114
246,591
253,86
260,928
267,793
274,454
280,918
287,197
293,312
299,296
305,166
310,932
316,603
322,177
327,652
333,022
338,268
343,364
348,282
352,991
357,471
361,699
365,634
369,215
372,366
374,991
377,002
378,316
378,852
378,525
377,266
375,019
371,747
367,43
362,045
355,565
347,956
339,198
329,292
318,271
306,191
293,126
279,168
264,421
249,006
233,066
216,732
200,121
183,34
166,486
149,671
133,028
116,701
100,824
85,519
70,891
57,036
44,042
31,968
20,844
10,673
1,426
-6,918
-14,375
-20,961
-26,699
-31,63
-35,822
-39,352
-42,298
-44,741
-46,77
-48,476
-49,963
-51,307
-52,559
-53,748
-54,886
-55,986
-57,068
-58,145
-59,221
-60,295
-61,356
-62,388
-63,381
-64,317
-65,166
-65,896
-66,463
-66,842
-67,026
-67,017
-66,826
-66,466
-65,949
-65,293
-64,521
-63,656
-62,721
-61,734
-60,711
-59,671
-58,639
-57,639
-56,699
-55,839
-55,072
-54,407
-53,848
-53,399
-53,061
-52,83
-52,699
-52,662
-52,715
-52,854
-53,078
-53,381
-53,757
-54,2
-54,703
-55,259
-55,862
-56,507
-57,186
-57,894
-58,627
-59,379
-60,147
-60,927
-61,714
-62,504
-63,292
-64,074
-64,845
-65,602
-66,342
-67,061
-67,756
-68,426
-69,07
-69,686
-70,274
-70,833
-71,364
-71,868
-72,344
-72,794
-73,219
-73,619
-73,998
-74,355
-74,693
-75,015
-75,321
-75,614
-75,897
-76,171
-76,44
-76,705
-76,968
-77,232
-77,498
-77,768
-78,044
-78,327
-78,62
-78,922
-79,236
-79,563
-79,902
-80,255
-80,621
-81
-81,391
-81,794
-82,208
-82,631
-83,063
-83,501
-83,945
-84,393
-84,842
-85,292
-85,741
-86,185
-86,625
-87,057
-87,479
-87,891
-88,289
-88,672
-89,039
-89,388
-89,717
-90,025
-90,31
-90,572
-90,809
-91,021
-91,205
-91,362
-91,491
-91,592
-91,664
-91,707
-91,722
-91,709
-91,669
-91,602
-91,509
-91,391
-91,249
-91,084
-90,898
-90,69
-90,464
-90,219
-89,958
-89,681
-89,391
-89,087
-88,772
-88,447
-88,113
-87,771
-87,423
-87,069
-86,711
-86,351
-85,989
-85,627
-85,266
-84,908
-84,555
-84,208
-83,867
-83,536
-83,215
-82,905
-82,608
-82,325
-82,058
-81,808
-81,576
-81,364
-81,174
-81,005
-80,86
-80,74
-80,645
-80,577
-80,536
-80,524
-80,542
-80,59
-80,668
-80,777
-80,918
-81,091
-81,294
-81,528
-81,791
-82,083
-82,401
-82,743
-83,108
-83,492
-83,893
-84,307
-84,731
-85,159
-85,589
-86,014
-86,431
-86,833
-87,215
-87,572
-87,897
-88,185
-88,43
-88,627
-88,769
-88,85
-88,864
-88,806
-88,67
-88,45
-88,14
-87,737
-87,234
-86,628
-85,915
-85,092
-84,156
-83,105
-81,937
-80,652
-79,25
-77,731
-76,096
-74,348
-72,491
-70,528
-68,464
-66,306
-64,06
-61,732
-59,332
-56,868
-54,349
-51,785
-49,186
-46,563
-43,927
-41,29
-38,665
-36,066
-33,506
-31,001
-28,565
-26,215
-23,965
-21,83
-19,824
-17,962
-16,254
-14,714
-13,352
-12,18
-11,21
-10,451
-9,911
-9,597
-9,516
-9,671
-10,066
-10,697
-11,562
-12,657
-13,981
-15,537
-17,325
-19,345
-21,594
-24,067
-26,754
-29,644
-32,718
-35,949
-39,304
-42,75
-46,252
-49,782
-53,307
-56,793
-60,197
-63,468
-66,554
-69,41
-71,993
-74,27
-76,219
-77,826
-79,096
-80,056
-80,744
-81,215
-81,536
-81,772
-82,005
-82,311
-82,79
-83,584
-84,805
-86,524
-88,738
-91,319
-94,084
-96,863
-99,418
-101,447
-102,73
-103,11
-102,653
-101,803
-101,079
-100,971
-101,973
-104,391
-108,294
-113,55
-119,507
-124,802
-127,828
-126,815
-119,97
-105,935
-83,682
-52,514
-12,483
35,435
89,686
148,1
208,055
267,069
322,63
372,199
413,567
445,024
465,239
473,471
469,7
454,103
427,184
389,999
343,966
290,791
232,658
171,896
110,501
50,634
-5,426
-55,766
-98,723
-133,027
-158,342
-174,826
-182,612
-182,369
-175,311
-162,859
-146,828
-129,066
-110,79
-93,039
-77,011
-63,605
-53,409
-46,599
-42,702
-41
-41,012
-42,189
-43,781
-45,023
-45,123
-43,619
-40,56
-36,204
-30,802
-24,672
-18,198
-11,83
-6,117
-1,4
2,252
4,886
6,632
7,652
8,097
8,157
8,067
7,981
7,97
8,079
8,301
8,626
9,067
9,615
10,259
11,01
11,889
12,914
14,111
15,487
17,028
18,73
20,579
22,551
24,617
26,742
28,895
31,067
33,258
35,471
37,707
39,968
42,254
44,58
46,971
49,448
52,036
54,763
57,661
60,777
64,175
67,908
72,021
76,546
81,49
86,863
92,674
98,92
105,59
112,66
120,085
127,83
135,868
144,16
152,667
161,333
170,08
178,842
187,565
196,203
204,726
213,099
221,285
229,259
237,006
244,518
251,806
258,871
265,704
272,311
278,7
284,899
290,955
296,904
302,766
308,555
314,273
319,919
325,495
330,984
336,365
341,61
346,681
351,548
356,177
360,514
364,488
368,009
370,962
373,244
374,759
375,414
375,137
373,864
371,541
368,141
363,642
358,027
351,279
343,38
334,326
324,146
312,891
300,64
287,499
273,581
259,009
243,922
228,446
212,7
196,791
180,809
164,843
148,992
133,368
118,094
103,277
89,01
75,368
62,415
50,198
38,744
28,056
18,112
8,891
0,375
-7,448
-14,583
-21,045
-26,864
-32,089
-36,779
-40,993
-44,791
-48,236
-51,393
-54,332
-57,103
-59,731
-62,228
-64,598
-66,85
-68,997
-71,054
-73,025
-74,909
-76,7
-78,387
-79,96
-81,406
-82,702
-83,82
-84,729
-85,408
-85,855
-86,074
-86,078
-85,877
-85,481
-84,905
-84,169
-83,292
-82,293
-81,187
-79,989
-78,716
-77,392
-76,039
-74,685
-73,35
-72,047
-70,788
-69,58
-68,431
-67,344
-66,323
-65,364
-64,468
-63,637
-62,872
-62,177
-61,554
-61,001
-60,518
-60,105
-59,759
-59,48
-59,268
-59,12
-59,036
-59,015
-59,057
-59,16
-59,326
-59,55
-59,833
-60,17
-60,559
-60,997
-61,482
-62,009
-62,576
-63,179
-63,815
-64,483
-65,178
-65,899
-66,642
-67,404
-68,183
-68,976
-69,779
-70,589
-71,404
-72,22
-73,034
-73,843
-74,644
-75,434
-76,211
-76,972
-77,714
-78,435
-79,132
-79,804
-80,449
-81,064
-81,649
-82,201
-82,721
-83,207
-83,658
-84,074
-84,455
-84,799
-85,107
-85,379
-85,614
-85,813
-85,975
-86,102
-86,194
-86,25
-86,273
-86,263
-86,22
-86,147
-86,043
-85,912
-85,753
-85,569
-85,361
-85,13
-84,878
-84,607
-84,318
-84,013
-83,693
-83,36
-83,015
-82,66
-82,296
-81,925
-81,547
-81,164
-80,777
-80,388
-79,998
-79,608
-79,221
-78,837
-78,457
-78,084
-77,719
-77,364
-77,019
-76,687
-76,369
-76,067
-75,783
-75,517
-75,273
-75,052
-74,855
-74,684
-74,542
-74,429
-74,348
-74,299
-74,284
-74,304
-74,362
-74,457
-74,593
-74,769
-74,987
-75,247
-75,551
-75,898
-76,288
-76,722
-77,199
-77,717
-78,277
-78,876
-79,513
-80,187
-80,896
-81,636
-82,405
-83,199
-84,015
-84,849
-85,695
-86,549
-87,406
-88,259
-89,103
-89,933
-90,743
-91,527
-92,28
-92,998
-93,673
-94,302
-94,877
-95,394
-95,846
-96,225
-96,526
-96,741
-96,864
-96,892
-96,819
-96,642
-96,356
-95,961
-95,454
-94,832
-94,094
-93,233
-92,246
-91,135
-89,904
-88,559
-87,112
-85,57
-83,946
-82,253
-80,502
-78,7
-76,85
-74,948
-72,989
-70,976
-68,913
-66,815
-64,694
-62,556
-60,407
-58,249
-56,078
-53,891
-51,684
-49,441
-47,155
-44,836
-42,501
-40,188
-37,94
-35,793
-33,773
-31,902
-30,191
-28,663
-27,334
-26,218
-25,339
-24,72
-24,393
-24,404
-24,793
-25,579
-26,765
-28,326
-30,219
-32,411
-34,869
-37,565
-40,474
-43,565
-46,818
-50,219
-53,746
-57,37
-61,033
-64,657
-68,164
-71,487
-74,58
-77,418
-79,985
-82,26
-84,221
-85,852
-87,157
-88,125
-88,713
-88,913
-88,746
-88,296
-87,762
-87,33
-87,139
-87,364
-88,136
-89,444
-91,206
-93,154
-94,826
-95,868
-95,991
-94,886
-92,482
-88,935
-84,541
-79,983
-76,138
-73,729
-73,434
-75,878
-81,454
-90,252
-101,974
-115,856
-130,149
-143,056
-153,709
-160,581
-163,545
-162,79
-155,271
-139,348
-113,021
-73,97
-25,538
28,925
86,411
142,656
197,258
250,073
299,621
345,276
385,245
417,636
441,673
456,597
461,844
457,246
442,749
418,403
384,638
342,368
292,841
237,863
179,689
120,41
62,121
7,107
-42,566
-85,168
-119,421
-144,985
-162,179
-171,346
-173,051
-168,333
-158,557
-145,408
-130,533
-114,992
-99,518
-84,974
-72,336
-62,371
-55,348
-50,963
-48,664
-48,08
-48,922
-50,727
-52,692
-53,908
-53,846
-52,42
-49,814
-46,243
-41,865
-36,896
-31,766
-27,035
-23,052
-19,928
-17,6
-15,916
-14,758
-14,023
-13,549
-13,118
-12,585
-11,886
-11,008
-9,997
-8,891
-7,704
-6,454
-5,168
-3,859
-2,528
-1,17
0,245
1,747
3,349
5,065
6,902
8,861
10,949
13,175
15,543
18,066
20,757
23,625
26,68
29,93
33,375
37,008
40,809
44,746
48,798
52,955
57,215
61,581
66,056
70,638
75,333
80,145
85,07
90,096
95,205
100,38
105,617
110,922
116,309
121,797
127,406
133,146
139,018
145,025
151,164
157,427
163,801
170,275
176,847
183,531
190,348
197,31
204,427
211,695
219,115
226,692
234,416
242,273
250,251
258,33
266,497
274,741
283,043
291,373
299,692
307,941
316,056
323,982
331,653
338,995
345,916
352,303
358,063
363,102
367,328
370,658
372,997
374,26
374,387
373,332
371,062
367,555
362,789
356,735
349,394
340,789
330,971
320,029
308,053
295,148
281,434
267,04
252,112
236,788
221,186
205,412
189,583
173,815
158,238
142,998
128,22
114,014
100,479
87,676
75,651
64,43
54,01
44,372
35,484
27,313
19,837
13,034
6,867
1,292
-3,752
-8,346
-12,569
-16,5
-20,225
-23,809
-27,298
-30,728
-34,107
-37,433
-40,703
-43,909
-47,043
-50,102
-53,076
-55,95
-58,711
-61,329
-63,775
-66,013
-67,999
-69,705
-71,115
-72,219
-73,026
-73,547
-73,797
-73,797
-73,571
-73,14
-72,526
-71,753
-70,836
-69,8
-68,671
-67,476
-66,248
-65,01
-63,783
-62,583
-61,42
-60,305
-59,242
-58,237
-57,287
-56,393
-55,556
-54,778
-54,062
-53,409
-52,818
-52,287
-51,815
-51,4
-51,04
-50,733
-50,477
-50,27
-50,108
-49,991
-49,918
-49,885
-49,89
-49,93
-49,999
-50,096
-50,216
-50,355
-50,51
-50,677
-50,853
-51,036
-51,223
-51,413
-51,603
-51,792
-51,98
-52,165
-52,347
-52,526
-52,702
-52,875
-53,045
-53,213
-53,379
-53,545
-53,711
-53,878
-54,048
-54,221
-54,399
-54,584
-54,776
-54,978
-55,189
-55,413
-55,65
-55,902
-56,17
-56,454
-56,755
-57,075
-57,414
-57,771
-58,146
-58,538
-58,948
-59,374
-59,814
-60,267
-60,731
-61,205
-61,686
-62,171
-62,659
-63,146
-63,631
-64,111
-64,582
-65,043
-65,491
-65,924
-66,339
-66,734
-67,106
-67,454
-67,776
-68,07
-68,334
-68,566
-68,765
-68,931
-69,063
-69,159
-69,221
-69,247
-69,238
-69,196
-69,121
-69,013
-68,876
-68,711
-68,519
-68,304
-68,069
-67,815
-67,546
-67,265
-66,975
-66,68
-66,383
-66,086
-65,793
-65,507
-65,23
-64,967
-64,718
-64,487
-64,276
-64,088
-63,924
-63,786
-63,675
-63,594
-63,542
-63,521
-63,532
-63,573
-63,645
-63,748
-63,88
-64,041
-64,228
-64,44
-64,674
-64,929
-65,201
-65,488
-65,787
-66,094
-66,406
-66,72
-67,033
-67,341
-67,642
-67,932
-68,208
-68,467
-68,707
-68,925
-69,118
-69,285
-69,423
-69,53
-69,606
-69,649
-69,657
-69,631
-69,569
-69,473
-69,342
-69,178
-68,981
-68,754
-68,499
-68,218
-67,915
-67,592
-67,253
-66,901
-66,54
-66,174
-65,808
-65,444
-65,086
-64,739
-64,406
-64,092
-63,799
-63,532
-63,294
-63,088
-62,917
-62,783
-62,69
-62,639
-62,633
-62,672
-62,758
-62,893
-63,075
-63,306
-63,584
-63,908
-64,274
-64,681
-65,124
-65,598
-66,099
-66,622
-67,161
-67,712
-68,267
-68,822
-69,372
-69,911
-70,434
-70,934
-71,405
-71,839
-72,229
-72,568
-72,848
-73,061
-73,2
-73,257
-73,227
-73,107
-72,89
-72,57
-72,138
-71,59
-70,924
-70,139
-69,237
-68,221
-67,095
-65,87
-64,56
-63,182
-61,749
-60,272
-58,752
-57,193
-55,6
-53,979
-52,339
-50,681
-48,996
-47,282
-45,536
-43,756
-41,942
-40,08
-38,142
-36,112
-33,978
-31,743
-29,427
-27,047
-24,622
-22,177
-19,745
-17,367
-15,102
-12,994
-11,08
-9,404
-8,001
-6,929
-6,258
-6,042
-6,322
-7,122
-8,448
-10,301
-12,679
-15,556
-18,892
-22,635
-26,719
-31,088
-35,687
-40,448
-45,301
-50,163
-54,941
-59,554
-63,926
-67,981
-71,651
-74,871
-77,596
-79,801
-81,475
-82,64
-83,358
-83,719
-83,851
-83,904
-83,992
-84,226
-84,717
-85,457
-86,337
-87,218
-87,912
-88,271
-88,229
-87,739
-86,735
-85,362
-83,988
-82,956
-82,6
-83,169
-84,768
-87,504
-91,627
-97,165
-103,787
-111,201
-119,056
-126,88
-134,251
-140,495
-144,446
-144,922
-140,965
-131,482
-115,532
-92,512
-61,879
-23,606
21,528
72,375
127,538
185,173
243,328
300,07
353,205
400,703
440,922
472,401
493,933
504,684
504,078
491,82
468,15
433,759
389,723
337,57
279,269
217,092
153,45
90,917
32,048
-20,911
-66,115
-102,239
-128,746
-145,681
-153,406
-152,844
-145,53
-133,256
-117,931
-101,382
-84,956
-69,73
-56,841
-47,103
-40,702
-37,385
-36,549
-37,406
-39,379
-41,941
-44,278
-45,588
-45,462
-43,817
-40,875
-37,072
-32,74
-28,166
-23,829
-20,232
-17,665
-16,24
-15,88
-16,363
-17,5
-19,111
-20,944
-22,745
-24,334
-25,59
-26,448
-26,876
-26,84
-26,325
-25,345
-23,933
-22,117
-19,912
-17,341
-14,431
-11,225
-7,768
-4,095
-0,228
3,81
7,981
12,24
16,529
20,808
25,057
29,261
33,405
37,473
41,453
45,348
49,174
52,942
56,647
60,275
63,811
67,256
70,631
73,964
77,287
80,628
84,019
87,5
91,126
94,948
99,001
103,307
107,882
112,746
117,937
123,497
129,448
135,799
142,539
149,653
157,131
164,949
173,07
181,435
189,965
198,594
207,277
215,976
224,656
233,277
241,791
250,161
258,376
266,433
274,331
282,065
289,619
296,986
304,175
311,201
318,088
324,838
331,432
337,847
344,059
350,044
355,773
361,195
366,22
370,762
374,735
378,059
380,667
382,48
383,415
383,401
382,38
380,313
377,185
372,974
367,658
361,223
353,658
344,985
335,264
324,556
312,934
300,487
287,306
273,504
259,207
244,524
229,553
214,384
199,102
183,808
168,614
153,632
138,987
124,783
111,109
98,055
85,687
74,046
63,158
53,022
43,618
34,938
26,976
19,719
13,157
7,256
1,969
-2,755
-6,988
-10,805
-14,282
-17,507
-20,547
-23,445
-26,236
-28,932
-31,535
-34,053
-36,492
-38,852
-41,136
-43,339
-45,452
-47,467
-49,364
-51,116
-52,691
-54,051
-55,17
-56,037
-56,651
-57,018
-57,153
-57,071
-56,792
-56,338
-55,732
-54,994
-54,144
-53,199
-52,179
-51,108
-50,012
-48,921
-47,858
-46,838
-45,877
-44,983
-44,164
-43,425
-42,767
-42,189
-41,688
-41,265
-40,921
-40,656
-40,472
-40,366
-40,336
-40,379
-40,492
-40,671
-40,914
-41,217
-41,577
-41,99
-42,453
-42,965
-43,522
-44,12
-44,755
-45,423
-46,119
-46,839
-47,579
-48,333
-49,098
-49,87
-50,645
-51,419
-52,19
-52,954
-53,709
-54,452
-55,18
-55,892
-56,586
-57,259
-57,91
-58,537
-59,139
-59,715
-60,264
-60,786
-61,28
-61,745
-62,183
-62,592
-62,975
-63,331
-63,661
-63,966
-64,248
-64,508
-64,747
-64,967
-65,17
-65,356
-65,529
-65,69
-65,84
-65,981
-66,116
-66,246
-66,373
-66,498
-66,623
-66,749
-66,879
-67,013
-67,153
-67,301
-67,457
-67,622
-67,799
-67,986
-68,186
-68,398
-68,623
-68,861
-69,112
-69,375
-69,649
-69,935
-70,23
-70,535
-70,847
-71,166
-71,489
-71,816
-72,145
-72,474
-72,801
-73,124
-73,442
-73,753
-74,055
-74,346
-74,625
-74,89
-75,139
-75,372
-75,587
-75,782
-75,957
-76,111
-76,242
-76,35
-76,434
-76,495
-76,532
-76,546
-76,537
-76,505
-76,453
-76,38
-76,289
-76,181
-76,058
-75,921
-75,773
-75,616
-75,451
-75,283
-75,112
-74,941
-74,773
-74,61
-74,453
-74,307
-74,171
-74,049
-73,943
-73,853
-73,782
-73,732
-73,703
-73,698
-73,717
-73,762
-73,833
-73,93
-74,054
-74,204
-74,382
-74,585
-74,813
-75,065
-75,341
-75,638
-75,955
-76,29
-76,641
-77,007
-77,384
-77,771
-78,165
-78,563
-78,963
-79,363
-79,761
-80,153
-80,537
-80,912
-81,275
-81,624
-81,956
-82,269
-82,562
-82,832
-83,077
-83,296
-83,488
-83,651
-83,784
-83,887
-83,959
-83,999
-84,008
-83,984
-83,93
-83,844
-83,728
-83,582
-83,408
-83,207
-82,981
-82,731
-82,459
-82,166
-81,855
-81,528
-81,186
-80,833
-80,469
-80,098
-79,723
-79,345
-78,969
-78,596
-78,231
-77,875
-77,532
-77,204
-76,893
-76,601
-76,331
-76,085
-75,864
-75,67
-75,506
-75,372
-75,269
-75,198
-75,161
-75,157
-75,186
-75,248
-75,342
-75,468
-75,625
-75,813
-76,029
-76,273
-76,543
-76,837
-77,152
-77,485
-77,833
-78,192
-78,556
-78,923
-79,286
-79,64
-79,981
-80,305
-80,607
-80,883
-81,129
-81,341
-81,514
-81,645
-81,728
-81,759
-81,731
-81,638
-81,477
-81,244
-80,935
-80,546
-80,075
-79,519
-78,877
-78,147
-77,328
-76,414
-75,4
-74,282
-73,065
-71,751
-70,35
-68,871
-67,318
-65,703
-64,038
-62,333
-60,594
-58,82
-57,004
-55,145
-53,245
-51,315
-49,372
-47,426
-45,481
-43,538
-41,598
-39,661
-37,733
-35,809
-33,877
-31,937
-30,001
-28,095
-26,267
-24,549
-22,967
-21,537
-20,269
-19,178
-18,289
-17,622
-17,199
-17,037
-17,149
-17,561
-18,312
-19,419
-20,89
-22,713
-24,844
-27,255
-29,927
-32,842
-35,987
-39,336
-42,846
-46,476
-50,183
-53,925
-57,665
-61,361
-64,96
-68,412
-71,662
-74,665
-77,396
-79,832
-81,966
-83,779
-85,236
-86,354
-87,195
-87,879
-88,605
-89,495
-90,567
-91,846
-93,344
-95,051
-97,013
-99,106
-100,981
-102,454
-103,458
-103,99
-104,238
-104,28
-103,988
-103,485
-103,153
-103,26
-104,162
-106,083
-108,851
-112,461
-117,027
-122,292
-127,761
-132,737
-136,001
-136,268
-132,482
-123,333
-107,53
-84,193
-52,611
-12,597
35,17
89,503
148,88
211,17
273,958
334,828
391,148
440,488
480,902
510,831
529,128
535,215
529,063
510,967
481,724
442,478
394,646
339,937
280,316
217,922
154,774
92,892
34,283
-19,18
-65,895
-104,662
-134,794
-156,248
-169,192
-174,021
-171,62
-163,245
-150,392
-134,687
-117,596
-100,144
-83,355
-68,337
-55,881
-46,463
-40,12
-36,429
-34,893
-35,192
-36,848
-39,125
-41,279
-42,571
-42,62
-41,5
-39,382
-36,405
-32,789
-28,846
-24,978
-21,7
-19,299
-17,767
-17,013
-16,868
-17,156
-17,751
-18,479
-19,098
-19,457
-19,494
-19,186
-18,583
-17,726
-16,612
-15,252
-13,659
-11,827
-9,771
-7,508
-5,05
-2,418
0,37
3,306
6,37
9,541
12,809
16,169
19,627
23,195
26,871
30,645
34,501
38,419
42,394
46,43
50,534
54,711
58,961
63,282
67,674
72,132
76,65
81,216
85,807
90,41
95,019
99,634
104,265
108,918
113,599
118,308
123,045
127,809
132,616
137,482
142,433
147,508
152,738
158,162
163,82
169,74
175,945
182,453
189,265
196,387
203,822
211,575
219,662
228,09
236,849
245,918
255,255
264,8
274,496
284,277
294,064
303,784
313,36
322,715
331,788
340,512
348,818
356,629
363,842
370,356
376,086
380,949
384,878
387,823
389,727
390,555
390,294
388,934
386,483
382,954
378,344
372,66
365,914
358,127
349,352
339,653
329,092
317,75
305,71
293,061
279,914
266,365
252,492
238,372
224,073
209,661
195,225
180,858
166,653
152,715
139,133
125,986
113,357
101,311
89,889
79,118
68,998
59,522
50,698
42,527
35,01
28,144
21,907
16,261
11,163
6,551
2,353
-1,497
-5,081
-8,473
-11,729
-14,886
-17,965
-20,974
-23,926
-26,833
-29,703
-32,542
-35,348
-38,112
-40,825
-43,469
-46,015
-48,433
-50,686
-52,732
-54,546
-56,114
-57,43
-58,504
-59,34
-59,948
-60,34
-60,533
-60,542
-60,382
-60,068
-59,612
-59,033
-58,351
-57,59
-56,776
-55,928
-55,061
-54,187
-53,313
-52,445
-51,588
-50,743
-49,91
-49,09
-48,286
-47,499
-46,736
-46,001
-45,294
-44,618
-43,975
-43,365
-42,791
-42,255
-41,76
-41,306
-40,897
-40,535
-40,225
-39,969
-39,768
-39,625
-39,54
-39,514
-39,549
-39,644
-39,799
-40,014
-40,288
-40,621
-41,012
-41,459
-41,962
-42,519
-43,126
-43,782
-44,484
-45,228
-46,011
-46,828
-47,675
-48,548
-49,443
-50,356
-51,281
-52,214
-53,151
-54,087
-55,019
-55,94
-56,849
-57,739
-58,608
-59,451
-60,265
-61,046
-61,792
-62,499
-63,166
-63,79
-64,369
-64,903
-65,39
-65,83
-66,222
-66,567
-66,866
-67,12
-67,33
-67,499
-67,629
-67,723
-67,783
-67,813
-67,816
-67,795
-67,755
-67,697
-67,626
-67,546
-67,459
-67,369
-67,279
-67,192
-67,112
-67,041
-66,981
-66,935
-66,905
-66,892
-66,899
-66,925
-66,972
-67,04
-67,129
-67,239
-67,368
-67,517
-67,682
-67,863
-68,057
-68,262
-68,474
-68,691
-68,91
-69,127
-69,339
-69,543
-69,736
-69,914
-70,074
-70,213
-70,328
-70,416
-70,475
-70,502
-70,496
-70,454
-70,375
-70,257
-70,1
-69,904
-69,667
-69,39
-69,073
-68,719
-68,326
-67,899
-67,437
-66,944
-66,423
-65,876
-65,308
-64,72
-64,118
-63,505
-62,885
-62,262
-61,64
-61,024
-60,416
-59,821
-59,243
-58,684
-58,149
-57,64
-57,16
-56,712
-56,299
-55,921
-55,582
-55,283
-55,024
-54,806
-54,629
-54,494
-54,399
-54,345
-54,329
-54,351
-54,408
-54,499
-54,62
-54,768
-54,942
-55,137
-55,35
-55,578
-55,817
-56,063
-56,315
-56,567
-56,819
-57,067
-57,308
-57,541
-57,763
-57,973
-58,169
-58,351
-58,516
-58,664
-58,794
-58,907
-59,002
-59,08
-59,141
-59,188
-59,221
-59,243
-59,254
-59,258
-59,256
-59,252
-59,247
-59,245
-59,249
-59,261
-59,285
-59,324
-59,381
-59,458
-59,556
-59,677
-59,821
-59,99
-60,182
-60,397
-60,631
-60,886
-61,157
-61,444
-61,744
-62,055
-62,374
-62,7
-63,029
-63,357
-63,679
-63,989
-64,281
-64,55
-64,788
-64,987
-65,141
-65,241
-65,284
-65,263
-65,172
-65,006
-64,757
-64,414
-63,971
-63,425
-62,773
-62,014
-61,148
-60,181
-59,121
-57,985
-56,784
-55,523
-54,205
-52,828
-51,39
-49,892
-48,332
-46,709
-45,024
-43,271
-41,452
-39,572
-37,63
-35,621
-33,528
-31,326
-28,999
-26,551
-23,989
-21,334
-18,612
-15,847
-13,081
-10,361
-7,734
-5,242
-2,918
-0,786
1,124
2,774
4,119
5,101
5,677
5,823
5,517
4,75
3,518
1,831
-0,282
-2,769
-5,584
-8,687
-12,046
-15,641
-19,435
-23,393
-27,475
-31,636
-35,833
-40,02
-44,141
-48,136
-51,954
-55,562
-58,937
-62,07
-64,947
-67,54
-69,822
-71,777
-73,382
-74,601
-75,435
-75,916
-76,124
-76,213
-76,321
-76,554
-77,066
-77,983
-79,299
-80,899
-82,52
-83,83
-84,647
-84,86
-84,279
-82,758
-80,354
-77,383
-74,443
-72,122
-70,753
-70,555
-71,842
-75,048
-80,436
-87,816
-96,596
-106,086
-115,637
-124,638
-132,188
-136,837
-137,046
-131,609
-119,572
-100,239
-73,137
-37,835
5,564
56,052
112,131
172,074
233,877
295,464
354,703
409,18
456,662
495,398
523,997
541,393
546,928
540,371
521,824
491,905
451,693
402,583
346,245
284,762
220,42
155,348
91,83
32,191
-21,587
-67,79
-105,09
-133,024
-151,635
-161,015
-161,876
-155,499
-143,409
-127,517
-109,765
-91,495
-73,896
-58,316
-45,744
-36,792
-31,624
-29,721
-30,326
-32,916
-36,869
-41,335
-45,462
-48,398
-49,655
-49,29
-47,566
-44,723
-41,063
-36,95
-32,808
-29,159
-26,307
-24,261
-22,919
-22,102
-21,626
-21,35
-21,118
-20,723
-20,049
-19,06
-17,742
-16,152
-14,347
-12,363
-10,255
-8,072
-5,843
-3,593
-1,352
0,875
3,084
5,289
7,53
9,84
12,235
14,721
17,299
19,975
22,767
25,691
28,748
31,927
35,22
38,627
42,156
45,805
49,553
53,358
57,169
60,956
64,706
68,426
72,12
75,796
79,466
83,156
86,915
90,801
94,861
99,123
103,615
108,363
113,409
118,808
124,596
130,794
137,406
144,419
151,823
159,608
167,74
176,168
184,821
193,618
202,496
211,411
220,313
229,163
237,917
246,533
254,998
263,312
271,473
279,483
287,337
295,024
302,544
309,905
317,116
324,184
331,097
337,829
344,355
350,637
356,629
362,265
367,447
372,068
376,026
379,222
381,568
382,979
383,38
382,71
380,919
377,975
373,862
368,573
362,105
354,466
345,671
335,766
324,829
312,945
300,214
286,738
272,619
257,972
242,906
227,515
211,895
196,123
180,273
164,428
148,672
133,096
117,804
102,883
88,403
74,432
61,026
48,235
36,113
24,681
13,96
3,967
-5,288
-13,789
-21,524
-28,496
-34,719
-40,223
-45,063
-49,293
-52,962
-56,134
-58,868
-61,23
-63,292
-65,104
-66,702
-68,117
-69,375
-70,5
-71,523
-72,461
-73,323
-74,112
-74,82
-75,438
-75,961
-76,374
-76,657
-76,789
-76,741
-76,498
-76,063
-75,44
-74,642
-73,681
-72,567
-71,32
-69,963
-68,516
-67,003
-65,443
-63,853
-62,254
-60,67
-59,125
-57,647
-56,256
-54,963
-53,779
-52,711
-51,763
-50,938
-50,236
-49,651
-49,182
-48,826
-48,583
-48,451
-48,43
-48,514
-48,699
-48,979
-49,35
-49,806
-50,342
-50,953
-51,634
-52,381
-53,188
-54,053
-54,972
-55,941
-56,953
-58,005
-59,092
-60,208
-61,35
-62,513
-63,692
-64,885
-66,087
-67,296
-68,509
-69,724
-70,938
-72,149
-73,355
-74,553
-75,742
-76,919
-78,082
-79,229
-80,359
-81,47
-82,561
-83,629
-84,674
-85,696
-86,692
-87,662
-88,604
-89,519
-90,405
-91,262
-92,088
-92,884
-93,649
-94,382
-95,083
-95,753
-96,389
-96,993
-97,564
-98,1
-98,603
-99,072
-99,506
-99,905
-100,269
-100,599
-100,894
-101,155
-101,383
-101,578
-101,74
-101,871
-101,971
-102,041
-102,083
-102,096
-102,082
-102,042
-101,977
-101,889
-101,777
-101,644
-101,49
-101,317
-101,126
-100,917
-100,692
-100,452
-100,198
-99,931
-99,653
-99,364
-99,067
-98,762
-98,452
-98,136
-97,818
-97,497
-97,176
-96,856
-96,538
-96,223
-95,912
-95,607
-95,309
-95,02
-94,74
-94,47
-94,211
-93,966
-93,733
-93,516
-93,313
-93,127
-92,958
-92,807
-92,674
-92,561
-92,468
-92,395
-92,342
-92,31
-92,298
-92,307
-92,336
-92,383
-92,448
-92,531
-92,629
-92,741
-92,867
-93,003
-93,148
-93,301
-93,458
-93,618
-93,778
-93,935
-94,088
-94,233
-94,369
-94,492
-94,6
-94,691
-94,762
-94,812
-94,838
-94,837
-94,809
-94,75
-94,661
-94,539
-94,383
-94,193
-93,968
-93,708
-93,415
-93,087
-92,727
-92,336
-91,916
-91,468
-90,996
-90,502
-89,988
-89,46
-88,919
-88,371
-87,818
-87,267
-86,72
-86,182
-85,657
-85,15
-84,666
-84,208
-83,78
-83,386
-83,03
-82,715
-82,445
-82,222
-82,049
-81,928
-81,861
-81,85
-81,894
-81,994
-82,15
-82,36
-82,624
-82,939
-83,303
-83,713
-84,165
-84,655
-85,179
-85,732
-86,308
-86,901
-87,506
-88,116
-88,724
-89,323
-89,906
-90,466
-90,996
-91,488
-91,937
-92,335
-92,676
-92,954
-93,163
-93,296
-93,348
-93,315
-93,191
-92,974
-92,66
-92,247
-91,732
-91,114
-90,394
-89,572
-88,648
-87,623
-86,5
-85,282
-83,972
-82,574
-81,091
-79,53
-77,897
-76,198
-74,442
-72,636
-70,79
-68,914
-67,02
-65,118
-63,219
-61,332
-59,468
-57,64
-55,858
-54,133
-52,475
-50,897
-49,412
-48,035
-46,78
-45,656
-44,673
-43,835
-43,151
-42,628
-42,273
-42,094
-42,095
-42,287
-42,684
-43,306
-44,167
-45,272
-46,614
-48,182
-49,967
-51,962
-54,159
-56,549
-59,11
-61,822
-64,668
-67,634
-70,694
-73,801
-76,886
-79,866
-82,669
-85,251
-87,587
-89,656
-91,426
-92,859
-93,925
-94,612
-94,938
-94,905
-94,488
-93,698
-92,596
-91,33
-90,143
-89,277
-88,907
-89,157
-90,112
-91,742
-93,952
-96,537
-99,117
-101,297
-102,716
-103,14
-102,522
-101,03
-98,953
-96,663
-94,705
-93,695
-94,352
-97,264
-102,706
-110,619
-120,616
-132,094
-144,173
-155,609
-164,723
-169,689
-168,772
-160,458
-143,614
-117,426
-81,516
-36,173
17,54
77,901
142,717
209,478
275,522
338,15
394,778
443,087
481,184
507,752
521,92
523,325
512,172
488,959
454,478
410,008
357,168
297,778
234,07
168,383
102,864
39,901
-18,101
-69,203
-111,836
-144,903
-168,214
-182,074
-186,916
-183,88
-174,561
-160,54
-143,6
-125,455
-107,188
-89,667
-73,894
-60,405
-49,446
-41,214
-35,414
-31,539
-29,383
-28,665
-28,813
-29,384
-29,88
-29,738
-28,853
-27,344
-25,225
-22,626
-19,791
-16,922
-14,367
-12,549
-11,587
-11,427
-11,982
-13,072
-14,545
-16,3
-18,148
-19,845
-21,248
-22,287
-22,947
-23,268
-23,257
-22,886
-22,143
-21,044
-19,616
-17,897
-15,914
-13,68
-11,205
-8,504
-5,604
-2,532
0,687
4,042
7,532
11,151
14,886
18,711
22,598
26,534
30,518
34,556
38,658
42,832
47,088
51,437
55,902
60,498
65,242
70,143
75,204
80,435
85,847
91,457
97,282
103,336
109,631
116,173
122,963
130
137,276
144,778
152,485
160,374
168,415
176,581
184,847
193,188
201,579
209,995
218,41
226,794
235,112
243,335
251,437
259,396
267,195
274,826
282,286
289,585
296,747
303,792
310,737
317,589
324,344
330,99
337,511
343,89
350,104
356,126
361,923
367,456
372,674
377,521
381,927
385,808
389,064
391,593
393,294
394,083
393,9
392,697
390,445
387,126
382,734
377,273
370,756
363,206
354,663
345,176
334,804
323,622
311,716
299,187
286,148
272,698
258,925
244,9
230,676
216,308
201,843
187,331
172,82
158,356
143,973
129,712
115,614
101,722
88,088
74,744
61,707
49,007
36,68
24,777
13,366
2,5
-7,781
-17,439
-26,449
-34,784
-42,42
-49,346
-55,567
-61,1
-65,981
-70,237
-73,886
-76,963
-79,512
-81,59
-83,273
-84,621
-85,676
-86,479
-87,066
-87,472
-87,733
-87,876
-87,913
-87,852
-87,694
-87,442
-87,107
-86,69
-86,182
-85,571
-84,832
-83,953
-82,936
-81,787
-80,512
-79,119
-77,615
-76,015
-74,338
-72,604
-70,831
-69,032
-67,221
-65,411
-63,623
-61,875
-60,192
-58,59
-57,077
-55,664
-54,355
-53,153
-52,062
-51,081
-50,203
-49,425
-48,746
-48,161
-47,672
-47,272
-46,959
-46,724
-46,562
-46,466
-46,429
-46,447
-46,511
-46,617
-46,758
-46,93
-47,129
-47,35
-47,588
-47,839
-48,095
-48,354
-48,609
-48,857
-49,093
-49,314
-49,516
-49,696
-49,854
-49,985
-50,089
-50,165
-50,211
-50,225
-50,208
-50,158
-50,076
-49,962
-49,815
-49,637
-49,428
-49,191
-48,925
-48,634
-48,32
-47,983
-47,626
-47,252
-46,863
-46,46
-46,047
-45,625
-45,198
-44,768
-44,338
-43,909
-43,485
-43,067
-42,658
-42,259
-41,872
-41,499
-41,14
-40,797
-40,471
-40,163
-39,873
-39,603
-39,353
-39,123
-38,914
-38,725
-38,556
-38,405
-38,272
-38,156
-38,055
-37,968
-37,892
-37,827
-37,77
-37,718
-37,671
-37,625
-37,577
-37,525
-37,464
-37,392
