Lead,Lead I
7,703
8,221
8,541
8,629
8,456
8,01
7,292
6,31
5,072
3,582
1,833
-0,183
-2,472
-5,053
-7,947
-11,183
-14,791
-18,763
-23,071
-27,671
-32,52
-37,594
-42,879
-48,362
-54,03
-59,882
-65,898
-72,053
-78,308
-84,59
-90,829
-96,957
-102,904
-108,636
-114,131
-119,376
-124,358
-129,06
-133,453
-137,511
-141,2
-144,464
-147,27
-149,599
-151,456
-152,887
-153,929
-154,612
-154,966
-155,008
-154,748
-154,199
-153,366
-152,25
-150,867
-149,235
-147,388
-145,38
-143,249
-141,019
-138,697
-136,263
-133,708
-131,029
-128,225
-125,299
-122,259
-119,118
-115,896
-112,621
-109,307
-105,963
-102,583
-99,152
-95,665
-92,118
-88,522
-84,897
-81,27
-77,67
-74,131
-70,679
-67,333
-64,098
-60,974
-57,965
-55,08
-52,334
-49,752
-47,359
-45,18
-43,251
-41,595
-40,215
-39,097
-38,203
-37,481
-36,896
-36,419
-36,035
-35,731
-35,486
-35,273
-35,074
-34,856
-34,587
-34,227
-33,714
-33
-32,067
-30,916
-29,581
-28,115
-26,55
-24,913
-23,226
-21,503
-19,764
-18,027
-16,3
-14,593
-12,927
-11,327
-9,842
-8,512
-7,351
-6,357
-5,509
-4,767
-4,106
-3,508
-2,946
-2,408
-1,878
-1,347
-0,816
-0,289
0,24
0,783
1,358
1,984
2,666
3,403
4,186
4,999
5,832
6,676
7,516
8,344
9,16
9,959
10,745
11,52
12,278
13,018
13,743
14,454
15,157
15,856
16,553
17,257
17,982
18,732
19,508
20,298
21,088
21,871
22,644
23,413
24,181
24,947
25,696
26,412
27,087
27,713
28,279
28,762
29,133
29,378
29,509
29,557
29,556
29,523
29,465
29,379
29,266
29,14
29,018
28,915
28,836
28,79
28,798
28,895
29,126
29,508
30,029
30,647
31,325
32,042
32,787
33,556
34,336
35,108
35,858
36,582
37,282
37,951
38,572
39,111
39,529
39,812
39,968
40,027
40,015
39,943
39,822
39,661
39,474
39,278
39,079
38,874
38,656
38,428
38,201
37,994
37,827
37,708
37,638
37,606
37,607
37,639
37,701
37,789
37,897
38,022
38,166
38,337
38,543
38,789
39,076
39,402
39,765
40,169
40,615
41,105
41,641
42,225
42,856
43,538
44,272
45,059
45,897
46,781
47,707
48,673
49,674
50,706
51,766
52,847
53,948
55,063
56,189
57,322
58,458
59,593
60,721
61,84
62,944
64,03
65,093
66,13
67,136
68,107
69,04
69,93
70,774
71,569
72,31
72,996
73,623
74,189
74,692
75,13
75,502
75,809
76,051
76,228
76,342
76,394
76,387
76,324
76,206
76,039
75,823
75,564
75,264
74,928
74,56
74,162
73,74
73,299
72,841
72,374
71,9
71,426
70,958
70,499
70,056
69,635
69,241
68,881
68,56
68,283
68,056
67,884
67,772
67,725
67,746
67,837
68,003
68,244
68,563
68,96
69,434
69,986
70,615
71,318
72,095
72,94
73,853
74,827
75,86
76,945
78,075
79,241
80,436
81,649
82,869
84,085
85,285
86,456
87,588
88,669
89,686
90,629
91,484
92,238
92,877
93,39
93,762
93,983
94,043
93,933
93,649
93,189
92,551
91,73
90,722
89,517
88,111
86,501
84,686
82,669
80,462
78,084
75,565
72,938
70,238
67,501
64,757
62,037
59,377
56,816
54,404
52,194
50,233
48,572
47,257
46,312
45,743
45,529
45,617
45,949
46,479
47,144
47,874
48,587
49,18
49,546
49,6
49,208
48,199
46,464
43,968
40,84
37,419
34,083
31,18
29,121
28,339
29,129
31,576
35,319
39,509
43,253
45,826
46,677
45,464
42,19
37,365
32,395
29,56
31,434
40,491
58,783
87,934
129,088
182,587
247,475
321,53
401,601
483,96
564,977
641,013
708,337
763,588
804,226
828,545
835,884
826,574
801,053
760,26
705,977
640,428
566,276
486,636
404,361
321,921
242,454
169,134
104,658
51,379
10,49
-18,049
-34,482
-39,278
-34,229
-21,903
-5,348
12,02
27,924
41,212
50,786
55,728
56,062
52,489
46,501
40,219
34,859
30,807
28,45
28,097
29,762
33,238
37,785
42,211
45,858
48,561
50,233
50,907
50,654
49,56
47,96
46,413
45,297
44,804
45,059
46,076
47,849
50,362
53,492
57,03
60,803
64,667
68,509
72,263
75,841
79,136
82,058
84,523
86,455
87,804
88,519
88,557
87,93
86,707
85,011
83,007
80,845
78,644
76,503
74,5
72,706
71,195
70,025
69,235
68,873
68,979
69,6
70,797
72,592
74,957
77,829
81,103
84,676
88,483
92,468
96,592
100,826
105,144
109,531
113,994
118,529
123,123
127,751
132,367
136,947
141,496
146,035
150,604
155,251
159,998
164,859
169,84
174,932
180,115
185,364
190,637
195,895
201,117
206,287
211,404
216,463
221,444
226,327
231,091
235,712
240,181
244,49
248,63
252,604
256,428
260,117
263,684
267,139
270,473
273,666
276,686
279,496
282,058
284,333
286,264
287,794
288,857
289,395
289,36
288,705
287,369
285,301
282,456
278,798
274,316
269,017
262,917
256,042
248,421
240,092
231,103
221,519
211,4
200,796
189,739
178,253
166,385
154,189
141,719
129,026
116,149
103,116
89,964
76,739
63,487
50,256
37,097
24,053
11,183
-1,422
-13,665
-25,437
-36,652
-47,253
-57,185
-66,399
-74,852
-82,503
-89,336
-95,358
-100,582
-105,026
-108,725
-111,717
-114,072
-115,89
-117,274
-118,328
-119,142
-119,781
-120,307
-120,778
-121,244
-121,742
-122,294
-122,907
-123,587
-124,34
-125,161
-126,039
-126,943
-127,822
-128,635
-129,346
-129,931
-130,378
-130,678
-130,826
-130,826
-130,69
-130,436
-130,086
-129,657
-129,163
-128,623
-128,058
-127,495
-126,969
-126,504
-126,117
-125,824
-125,632
-125,547
-125,574
-125,711
-125,95
-126,283
-126,705
-127,21
-127,794
-128,454
-129,18
-129,968
-130,807
-131,691
-132,615
-133,573
-134,559
-135,569
-136,596
-137,638
-138,691
-139,754
-140,821
-141,889
-142,952
-144,007
-145,051
-146,079
-147,088
-148,075
-149,039
-149,979
-150,893
-151,782
-152,646
-153,486
-154,301
-155,095
-155,868
-156,621
-157,356
-158,075
-158,779
-159,471
-160,151
-160,822
-161,485
-162,141
-162,793
-163,441
-164,087
-164,732
-165,378
-166,025
-166,674
-167,326
-167,983
-168,643
-169,308
-169,977
-170,651
-171,328
-172,009
-172,692
-173,377
-174,062
-174,745
-175,426
-176,103
-176,773
-177,436
-178,09
-178,733
-179,365
-179,985
-180,591
-181,182
-181,758
-182,318
-182,861
-183,387
-183,896
-184,387
-184,859
-185,314
-185,751
-186,17
-186,572
-186,958
-187,327
-187,683
-188,024
-188,355
-188,675
-188,987
-189,292
-189,594
-189,895
-190,196
-190,501
-190,811
-191,13
-191,459
-191,801
-192,157
-192,531
-192,922
-193,334
-193,767
-194,223
-194,704
-195,211
-195,746
-196,309
-196,903
-197,53
-198,19
-198,887
-199,621
-200,394
-201,209
-202,067
-202,968
-203,915
-204,909
-205,95
-207,039
-208,177
-209,363
-210,598
-211,881
-213,212
-214,59
-216,015
-217,485
-219
-220,559
-222,16
-223,803
-225,487
-227,21
-228,97
-230,766
-232,596
-234,457
-236,346
-238,259
-240,193
-242,143
-244,103
-246,069
-248,034
-249,991
-251,934
-253,855
-255,746
-257,6
-259,409
-261,165
-262,859
-264,483
-266,03
-267,491
-268,859
-270,125
-271,282
-272,321
-273,236
-274,017
-274,658
-275,151
-275,488
-275,663
-275,668
-275,497
-275,143
-274,601
-273,867
-272,936
-271,804
-270,469
-268,93
-267,185
-265,236
-263,083
-260,729
-258,176
-255,43
-252,494
-249,374
-246,077
-242,609
-238,978
-235,192
-231,259
-227,188
-222,99
-218,673
-214,249
-209,73
-205,125
-200,449
-195,712
-190,927
-186,109
-181,27
-176,423
-171,583
-166,762
-161,975
-157,234
-152,553
-147,944
-143,419
-138,988
-134,663
-130,454
-126,37
-122,418
-118,606
-114,941
-111,43
-108,076
-104,884
-101,858
-99
-96,313
-93,796
-91,451
-89,277
-87,271
-85,432
-83,757
-82,24
-80,876
-79,661
-78,585
-77,642
-76,824
-76,121
-75,522
-75,019
-74,6
-74,254
-73,97
-73,736
-73,541
-73,372
-73,219
-73,07
-72,914
-72,739
-72,534
-72,29
-71,996
-71,644
-71,224
-70,727
-70,147
-69,476
-68,707
-67,835
-66,855
-65,764
-64,559
-63,237
-61,798
-60,244
-58,575
-56,795
-54,905
-52,91
-50,817
-48,63
-46,356
-44,001
-41,574
-39,083
-36,54
-33,953
-31,336
-28,7
-26,06
-23,43
-20,826
-18,262
-15,754
-13,315
-10,96
-8,705
-6,565
-4,555
-2,689
-0,979
0,557
1,905
3,052
3,987
4,704
5,2
5,467
5,499
5,288
4,828
4,11
3,126
1,858
0,286
-1,605
-3,822
-6,361
-9,216
-12,381
-15,851
-19,613
-23,648
-27,93
-32,423
-37,095
-41,905
-46,795
-51,688
-56,487
-61,078
-65,358
-69,242
-72,652
-75,52
-77,776
-79,368
-80,275
-80,503
-80,078
-79,035
-77,401
-75,217
-72,579
-69,63
-66,549
-63,553
-60,846
-58,605
-57,036
-56,385
-56,836
-58,466
-61,219
-64,838
-69,036
-73,602
-78,25
-82,581
-86,281
-89,132
-91,155
-92,819
-94,65
-96,953
-100,079
-104,336
-109,705
-116,008
-122,577
-127,825
-129,868
-126,885
-116,806
-97,701
-68,158
-26,889
26,741
92,006
167,363
250,655
338,671
427,785
514,465
594,652
664,274
720,144
759,693
781,073
783,928
768,739
736,201
688,059
626,934
555,596
477,182
395,041
311,715
229,416
150,782
78,116
13,204
-42,375
-87,649
-122,39
-146,229
-158,816
-160,722
-153,206
-137,985
-117,295
-93,427
-68,283
-43,925
-22,755
-6,66
3,359
7,088
5,13
-1,414
-11,472
-23,741
-36,361
-47,495
-55,925
-61,015
-62,735
-61,494
-57,744
-52,049
-45,346
-38,647
-32,613
-27,584
-23,61
-20,515
-18,13
-16,286
-14,686
-13,01
-11,095
-8,906
-6,505
-4,037
-1,605
0,721
2,849
4,698
6,242
7,483
8,461
9,254
9,918
10,502
11,076
11,701
12,436
13,336
14,444
15,791
17,419
19,362
21,642
24,265
27,218
30,481
34,037
37,861
41,921
46,182
50,59
55,095
59,671
64,299
68,968
73,668
78,38
83,087
87,8
92,553
97,375
102,3
107,345
112,519
117,841
123,336
129,034
134,966
141,143
147,56
154,223
161,14
168,32
175,779
183,494
191,41
199,482
207,667
215,931
224,255
232,606
240,94
249,22
257,408
265,47
273,382
281,104
288,582
295,765
302,597
309,048
315,115
320,786
326,05
330,89
335,281
339,203
342,647
345,594
348,023
349,918
351,262
352,057
352,318
352,061
351,306
350,064
348,327
346,091
343,348
340,091
336,315
332,021
327,217
321,914
316,134
309,892
303,206
296,082
288,517
280,506
272,041
263,128
253,785
244,05
233,975
223,623
213,066
202,369
191,587
180,77
169,966
159,221
148,582
138,107
127,857
117,903
108,322
99,178
90,517
82,365
74,723
67,573
60,882
54,619
48,764
43,298
38,21
33,486
29,115
25,077
21,351
17,903
14,685
11,66
8,794
6,073
3,496
1,075
-1,163
-3,2
-5,02
-6,616
-7,989
-9,144
-10,091
-10,839
-11,403
-11,788
-11,992
-12,016
-11,863
-11,542
-11,069
-10,467
-9,763
-8,984
-8,154
-7,293
-6,416
-5,534
-4,654
-3,782
-2,917
-2,062
-1,223
-0,404
0,388
1,151
1,882
2,581
3,249
3,889
4,501
5,089
5,653
6,196
6,716
7,212
7,684
8,129
8,547
8,937
9,3
9,636
9,945
10,229
10,487
10,721
10,929
11,111
11,265
11,391
11,487
11,552
11,583
11,58
11,54
11,463
11,347
11,192
10,997
10,761
10,484
10,167
9,809
9,411
8,974
8,5
7,99
7,447
6,873
6,271
5,644
4,996
4,329
3,647
2,955
2,255
1,552
0,85
0,154
-0,533
-1,205
-1,857
-2,485
-3,084
-3,65
-4,178
-4,664
-5,105
-5,497
-5,837
-6,122
-6,351
-6,521
-6,631
-6,68
-6,668
-6,595
-6,461
-6,269
-6,019
-5,713
-5,354
-4,946
-4,491
-3,992
-3,455
-2,883
-2,28
-1,652
-1,004
-0,341
0,332
1,008
1,683
2,351
3,005
3,641
4,253
4,836
5,384
5,894
6,36
6,779
7,146
7,459
7,714
7,909
8,041
8,109
8,112
8,047
7,916
7,717
7,45
7,118
6,72
6,258
5,734
5,151
4,51
3,815
3,069
2,276
1,44
0,564
-0,346
-1,287
-2,252
-3,238
-4,238
-5,249
-6,264
-7,28
-8,29
-9,29
-10,276
-11,242
-12,184
-13,098
-13,978
-14,822
-15,624
-16,381
-17,088
-17,744
-18,344
-18,885
-19,365
-19,781
-20,131
-20,414
-20,627
-20,771
-20,843
-20,844
-20,773
-20,632
-20,422
-20,145
-19,801
-19,395
-18,928
-18,403
-17,824
-17,194
-16,517
-15,797
-15,039
-14,247
-13,426
-12,582
-11,719
-10,844
-9,963
-9,082
-8,207
-7,344
-6,5
-5,682
-4,897
-4,15
-3,448
-2,799
-2,207
-1,68
-1,223
-0,841
-0,54
-0,324
-0,196
-0,16
-0,22
-0,377
-0,634
-0,993
-1,453
-2,018
-2,685
-3,456
-4,328
-5,302
-6,374
-7,542
-8,803
-10,153
-11,587
-13,102
-14,69
-16,347
-18,066
-19,841
-21,664
-23,53
-25,429
-27,356
-29,302
-31,259
-33,221
-35,18
-37,128
-39,059
-40,965
-42,841
-44,679
-46,474
-48,22
-49,911
-51,542
-53,109
-54,606
-56,03
-57,377
-58,645
-59,831
-60,933
-61,951
-62,883
-63,73
-64,492
-65,171
-65,768
-66,284
-66,723
-67,086
-67,376
-67,596
-67,749
-67,835
-67,859
-67,821
-67,726
-67,576
-67,373
-67,123
-66,827
-66,492
-66,12
-65,718
-65,287
-64,831
-64,351
-63,849
-63,326
-62,783
-62,22
-61,637
-61,032
-60,407
-59,763
-59,098
-58,41
-57,692
-56,942
-56,159
-55,347
-54,508
-53,65
-52,778
-51,902
-51,042
-50,212
-49,427
-48,698
-48,026
-47,41
-46,853
-46,358
-45,929
-45,564
-45,248
-44,964
-44,7
-44,439
-44,167
-43,863
-43,492
-43,025
-42,446
-41,747
-40,937
-40,035
-39,057
-38,024
-36,965
-35,92
-34,947
-34,116
-33,484
-33,106
-33,037
-33,327
-34,045
-35,245
-36,962
-39,226
-42,047
-45,424
-49,353
-53,824
-58,805
-64,258
-70,116
-76,283
-82,658
-89,145
-95,65
-102,099
-108,425
-114,553
-120,416
-125,928
-130,994
-135,525
-139,458
-142,724
-145,231
-146,97
-148,009
-148,526
-148,837
-149,241
-149,932
-151,038
-152,645
-154,585
-156,536
-158,142
-158,794
-157,947
-155,27
-150,499
-143,628
-135,267
-126,288
-117,492
-109,979
-104,676
-102,339
-103,994
-110,204
-120,583
-134,326
-150,382
-167,243
-183,606
-197,899
-207,561
-210,223
-204,127
-187,74
-160,242
-121,311
-70,367
-7,588
65,35
146,257
232,469
320,779
408,397
492,438
569,244
635,48
688,618
726,667
748,471
753,654
741,983
713,722
670,144
613,122
544,948
468,143
385,355
299,279
212,615
128,337
49,373
-21,854
-83,369
-133,532
-171,549
-197,117
-210,037
-211,237
-202,642
-186,384
-164,982
-141,193
-117,114
-94,78
-76,56
-63,74
-56,568
-54,885
-57,768
-63,844
-72,113
-81,288
-89,558
-95,844
-99,69
-100,894
-99,892
-97,375
-93,811
-89,94
-86,792
-84,9
-84,486
-85,616
-87,973
-91,199
-95,022
-98,992
-102,593
-105,541
-107,674
-108,923
-109,352
-108,969
-107,762
-105,795
-103,15
-99,901
-96,119
-91,845
-87,122
-82,033
-76,689
-71,207
-65,689
-60,195
-54,764
-49,431
-44,226
-39,183
-34,319
-29,631
-25,115
-20,764
-16,574
-12,544
-8,659
-4,888
-1,194
2,463
6,117
9,791
13,505
17,277
21,122
25,056
29,091
33,231
37,484
41,86
46,372
51,033
55,853
60,837
65,987
71,307
76,799
82,462
88,297
94,299
100,465
106,79
113,267
119,89
126,647
133,524
140,507
147,577
154,715
161,903
169,118
176,338
183,541
190,704
197,802
204,811
211,703
218,453
225,032
231,412
237,564
243,46
249,07
254,366
259,321
263,91
268,104
271,878
275,202
278,055
280,419
282,28
283,626
284,453
284,758
284,546
283,83
282,622
280,932
278,768
276,136
273,047
269,513
265,545
261,158
256,362
251,155
245,539
239,509
233,053
226,158
218,803
210,96
202,615
193,767
184,421
174,599
164,322
153,62
142,535
131,114
119,412
107,505
95,471
83,398
71,397
59,572
48,033
36,903
26,276
16,234
6,846
-1,841
-9,786
-16,961
-23,359
-28,986
-33,854
-38
-41,466
-44,31
-46,619
-48,472
-49,948
-51,136
-52,105
-52,91
-53,607
-54,229
-54,803
-55,352
-55,884
-56,399
-56,898
-57,372
-57,801
-58,162
-58,412
-58,517
-58,452
-58,19
-57,717
-57,024
-56,106
-54,969
-53,629
-52,1
-50,4
-48,554
-46,578
-44,495
-42,334
-40,122
-37,894
-35,68
-33,501
-31,38
-29,334
-27,377
-25,521
-23,774
-22,139
-20,619
-19,219
-17,941
-16,791
-15,773
-14,887
-14,136
-13,52
-13,039
-12,695
-12,49
-12,424
-12,498
-12,713
-13,069
-13,566
-14,203
-14,98
-15,891
-16,934
-18,102
-19,392
-20,797
-22,31
-23,925
-25,636
-27,436
-29,318
-31,275
-33,3
-35,387
-37,527
-39,715
-41,943
-44,203
-46,49
-48,794
-51,111
-53,431
-55,748
-58,055
-60,343
-62,607
-64,839
-67,032
-69,179
-71,276
-73,316
-75,294
-77,206
-79,046
-80,812
-82,499
-84,105
-85,625
-87,059
-88,403
-89,656
-90,815
-91,879
-92,847
-93,717
-94,488
-95,159
-95,728
-96,195
-96,559
-96,819
-96,975
-97,027
-96,975
-96,82
-96,562
-96,202
-95,742
-95,184
-94,529
-93,779
-92,937
-92,004
-90,983
-89,878
-88,69
-87,424
-86,084
-84,672
-83,195
-81,655
-80,059
-78,41
-76,716
-74,98
-73,211
-71,413
-69,594
-67,762
-65,923
-64,086
-62,259
-60,45
-58,668
-56,921
-55,218
-53,566
-51,973
-50,448
-48,999
-47,632
-46,354
-45,174
-44,097
-43,13
-42,279
-41,549
-40,944
-40,469
-40,126
-39,919
-39,848
-39,916
-40,123
-40,469
-40,953
-41,573
-42,328
-43,214
-44,228
-45,363
-46,616
-47,979
-49,445
-51,007
-52,658
-54,387
-56,188
-58,05
-59,965
-61,922
-63,912
-65,925
-67,951
-69,979
-71,998
-74
-75,973
-77,909
-79,798
-81,631
-83,4
-85,097
-86,715
-88,245
-89,683
-91,02
-92,253
-93,375
-94,382
-95,271
-96,038
-96,682
-97,201
-97,593
-97,859
-97,998
-98,011
-97,899
-97,665
-97,309
-96,835
-96,246
-95,546
-94,739
-93,829
-92,822
-91,723
-90,537
-89,271
-87,93
-86,521
-85,049
-83,521
-81,943
-80,322
-78,666
-76,979
-75,271
-73,546
-71,813
-70,078
-68,348
-66,629
-64,927
-63,25
-61,602
-59,992
-58,423
-56,903
-55,438
-54,032
-52,691
-51,419
-50,223
-49,105
-48,069
-47,119
-46,259
-45,491
-44,817
-44,239
-43,761
-43,381
-43,103
-42,925
-42,848
-42,871
-42,993
-43,213
-43,528
-43,936
-44,434
-45,018
-45,685
-46,43
-47,249
-48,135
-49,084
-50,088
-51,141
-52,236
-53,367
-54,526
-55,706
-56,899
-58,098
-59,296
-60,485
-61,658
-62,807
-63,925
-65,003
-66,036
-67,015
-67,935
-68,788
-69,569
-70,272
-70,893
-71,426
-71,867
-72,212
-72,459
-72,603
-72,644
-72,581
-72,411
-72,137
-71,758
-71,276
-70,695
-70,016
-69,243
-68,38
-67,43
-66,397
-65,286
-64,101
-62,846
-61,526
-60,149
-58,721
-57,25
-55,743
-54,211
-52,662
-51,109
-49,56
-48,027
-46,517
-45,04
-43,607
-42,229
-40,915
-39,676
-38,521
-37,461
-36,51
-35,678
-34,975
-34,406
-33,972
-33,677
-33,53
-33,54
-33,719
-34,078
-34,627
-35,386
-36,379
-37,629
-39,153
-40,956
-43,028
-45,365
-47,966
-50,832
-53,959
-57,334
-60,923
-64,695
-68,617
-72,646
-76,728
-80,779
-84,693
-88,368
-91,719
-94,681
-97,211
-99,263
-100,783
-101,728
-102,074
-101,827
-101,021
-99,7
-97,9
-95,686
-93,151
-90,427
-87,694
-85,143
-82,948
-81,271
-80,259
-80,034
-80,75
-82,591
-85,633
-89,849
-95,091
-101,027
-107,341
-113,787
-119,989
-125,463
-129,856
-132,882
-134,535
-135,358
-135,835
-136,211
-136,814
-137,76
-138,845
-139,918
-140,337
-138,468
-132,65
-121,335
-102,808
-76,002
-40,315
5,099
60,475
124,825
196,811
274,529
355,211
436,429
515,677
589,476
654,304
707,145
744,983
765,508
767,68
750,577
713,853
658,778
587,592
503,21
409,7
311,347
211,792
115,091
25,433
-53,946
-120,463
-172,274
-209,075
-231,268
-239,09
-233,798
-217,743
-193,536
-164,235
-133,005
-102,146
-73,723
-50,228
-33,396
-23,807
-21,316
-24,857
-32,824
-43,843
-56,372
-68,306
-77,815
-83,825
-85,862
-84,159
-79,383
-72,181
-63,365
-54,081
-45,403
-37,985
-32,117
-27,753
-24,635
-22,528
-21,16
-20,133
-19,066
-17,758
-16,15
-14,292
-12,291
-10,194
-8,004
-5,76
-3,505
-1,244
1,036
3,383
5,872
8,531
11,358
14,357
17,526
20,88
24,438
28,2
32,156
36,29
40,577
45
49,533
54,137
58,767
63,375
67,902
72,304
76,54
80,558
84,321
87,805
91,003
93,929
96,608
99,07
101,356
103,514
105,612
107,719
109,897
112,199
114,684
117,414
120,461
123,91
127,829
132,259
137,221
142,717
148,738
155,264
162,257
169,651
177,362
185,313
193,443
201,702
210,041
218,398
226,698
234,858
242,808
250,496
257,877
264,916
271,577
277,836
283,69
289,156
294,263
299,028
303,448
307,516
311,218
314,549
317,51
320,1
322,309
324,124
325,531
326,519
327,088
327,228
326,924
326,154
324,897
323,144
320,904
318,184
314,997
311,352
307,257
302,731
297,797
292,473
286,778
280,726
274,318
267,556
260,446
252,98
245,156
236,961
228,373
219,385
209,997
200,213
190,051
179,525
168,653
157,471
146,019
134,348
122,528
110,634
98,749
86,982
75,432
64,202
53,405
43,129
33,448
24,431
16,124
8,568
1,794
-4,191
-9,389
-13,813
-17,5
-20,497
-22,866
-24,697
-26,075
-27,078
-27,796
-28,295
-28,635
-28,873
-29,049
-29,193
-29,335
-29,488
-29,66
-29,858
-30,075
-30,293
-30,489
-30,621
-30,654
-30,566
-30,33
-29,933
-29,369
-28,632
-27,728
-26,671
-25,473
-24,15
-22,722
-21,203
-19,615
-17,982
-16,333
-14,7
-13,112
-11,589
-10,151
-8,814
-7,588
-6,485
-5,51
-4,662
-3,943
-3,356
-2,901
-2,584
-2,404
-2,361
-2,455
-2,683
-3,043
-3,535
-4,156
-4,906
-5,781
-6,781
-7,903
-9,145
-10,505
-11,978
-13,559
-15,241
-17,018
-18,883
-20,828
-22,846
-24,928
-27,066
-29,253
-31,481
-33,742
-36,029
-38,333
-40,647
-42,963
-45,274
-47,572
-49,849
-52,099
-54,314
-56,487
-58,612
-60,681
-62,689
-64,63
-66,498
-68,288
-69,996
-71,617
-73,149
-74,588
-75,933
-77,182
-78,334
-79,389
-80,347
-81,209
-81,976
-82,649
-83,232
-83,725
-84,132
-84,455
-84,698
-84,863
-84,955
-84,976
-84,932
-84,824
-84,659
-84,439
-84,169
-83,854
-83,496
-83,101
-82,674
-82,217
-81,736
-81,234
-80,716
-80,185
-79,646
-79,1
-78,552
-78,005
-77,461
-76,923
-76,394
-75,874
-75,367
-74,874
-74,397
-73,937
-73,495
-73,074
-72,673
-72,295
-71,939
-71,608
-71,302
-71,022
-70,769
-70,544
-70,349
-70,185
-70,052
-69,952
-69,885
-69,853
-69,856
-69,895
-69,97
-70,083
-70,234
-70,422
-70,649
-70,915
-71,22
-71,565
-71,948
-72,371
-72,833
-73,334
-73,873
-74,449
-75,063
-75,712
-76,398
-77,117
-77,869
-78,653
-79,466
-80,306
-81,172
-82,06
-82,968
-83,893
-84,831
-85,779
-86,735
-87,693
-88,652
-89,607
-90,555
-91,492
-92,416
-93,321
-94,206
-95,066
-95,898
-96,7
-97,468
-98,2
-98,893
-99,544
-100,151
-100,711
-101,223
-101,685
-102,095
-102,451
-102,753
-103
-103,19
-103,324
-103,403
-103,425
-103,394
-103,308
-103,171
-102,983
-102,746
-102,464
-102,138
-101,771
-101,365
-100,924
-100,451
-99,948
-99,42
-98,869
-98,299
-97,714
-97,116
-96,509
-95,897
-95,284
-94,672
-94,066
-93,469
-92,884
-92,314
-91,763
-91,234
-90,73
-90,252
-89,804
-89,387
-89,004
-88,655
-88,343
-88,067
-87,829
-87,628
-87,464
-87,338
-87,248
-87,194
-87,174
-87,186
-87,231
-87,305
-87,408
-87,536
-87,687
-87,86
-88,051
-88,257
-88,474
-88,7
-88,93
-89,162
-89,392
-89,616
-89,83
-90,032
-90,217
-90,383
-90,527
-90,645
-90,735
-90,793
-90,819
-90,811
-90,767
-90,688
-90,572
-90,42
-90,233
-90,012
-89,759
-89,476
-89,165
-88,829
-88,471
-88,094
-87,704
-87,306
-86,908
-86,519
-86,146
-85,8
-85,49
-85,227
-85,022
-84,882
-84,816
-84,832
-84,936
-85,138
-85,448
-85,874
-86,425
-87,106
-87,925
-88,884
-89,989
-91,239
-92,63
-94,157
-95,818
-97,615
-99,555
-101,647
-103,892
-106,287
-108,826
-111,498
-114,289
-117,179
-120,132
-123,107
-126,066
-128,97
-131,792
-134,496
-137,038
-139,364
-141,404
-143,093
-144,379
-145,222
-145,595
-145,485
-144,888
-143,825
-142,34
-140,498
-138,386
-136,099
-133,738
-131,421
-129,258
-127,399
-126,075
-125,431
-125,508
-126,23
-127,301
-128,416
-129,393
-129,95
-129,711
-128,498
-126,258
-123,27
-120,432
-118,529
-117,968
-119,12
-122,042
-126,378
-131,712
-136,943
-139,866
-138,334
-130,514
-114,635
-89,71
-55,192
-10,326
44,752
108,502
179,049
254,078
330,771
406,848
479,774
545,95
602,026
645,388
673,626
685,25
679,672
656,113
614,693
557,277
486,494
405,615
318,63
229,146
140,373
56,164
-19,907
-85,303
-138,172
-177,808
-204,763
-219,781
-223,664
-218,132
-205,553
-188,786
-170,818
-153,873
-139,465
-127,444
-117,772
-112,19
-110,616
-114,73
-126,04
-139,153
-150,828
-156,83
-151,46
-139,054
-123,605
-108,265
-98,505
-92,402
-87,434
-83,278
-78,321
-73,74
-70,958
-69,593
-69,42
-69,869
-70,365
-70,908
-71,522
-72,115
-72,618
-72,99
-73,238
-73,384
-73,407
-73,261
-72,892
-72,282
-71,437
-70,354
-69,023
-67,432
-65,59
-63,519
-61,25
-58,814
-56,222
-53,483
-50,614
-47,632
-44,559
-41,413
-38,199
-34,915
-31,568
-28,169
-24,737
-21,3
-17,864
-14,424
-10,975
-7,503
-3,998
-0,447
3,169
6,879
10,704
14,666
18,779
23,055
27,514
32,177
37,067
42,211
47,632
53,344
59,366
65,707
72,368
79,347
86,631
94,202
102,039
110,116
118,403
126,872
135,493
144,24
153,094
162,025
171,005
179,996
188,957
197,852
206,66
215,358
223,928
232,362
240,656
248,819
256,881
264,858
272,749
280,543
288,202
295,698
303,003
310,091
316,944
323,531
329,804
335,721
341,243
346,318
350,888
354,866
358,128
360,578
362,142
362,773
362,456
361,173
358,905
355,642
351,374
346,104
339,852
332,622
324,41
315,233
305,111
294,116
282,372
269,982
257,035
243,611
229,764
215,563
201,093
186,43
171,65
156,834
142,061
127,442
113,112
99,19
85,789
72,982
60,787
49,233
38,349
28,159
18,693
9,958
1,939
-5,376
-11,994
-17,945
-23,269
-28,039
-32,361
-36,331
-40,039
-43,552
-46,906
-50,137
-53,283
-56,365
-59,401
-62,4
-65,351
-68,253
-71,112
-73,917
-76,651
-79,279
-81,742
-83,994
-86
-87,732
-89,179
-90,331
-91,18
-91,733
-92,003
-92,007
-91,765
-91,295
-90,605
-89,714
-88,641
-87,414
-86,064
-84,619
-83,096
-81,515
-79,888
-78,227
-76,542
-74,836
-73,11
-71,363
-69,596
-67,812
-66,016
-64,211
-62,398
-60,581
-58,76
-56,938
-55,121
-53,313
-51,517
-49,74
-47,987
-46,263
-44,578
-42,938
-41,349
-39,815
-38,344
-36,939
-35,608
-34,354
-33,183
-32,1
-31,108
-30,212
-29,416
-28,725
-28,141
-27,667
-27,307
-27,061
-26,932
-26,921
-27,028
-27,254
-27,598
-28,058
-28,632
-29,317
-30,11
-31,006
-32
-33,087
-34,262
-35,519
-36,849
-38,247
-39,705
-41,215
-42,769
-44,359
-45,977
-47,614
-49,262
-50,913
-52,559
-54,193
-55,808
-57,395
-58,949
-60,463
-61,93
-63,346
-64,705
-66,003
-67,234
-68,395
-69,483
-70,496
-71,432
-72,288
-73,065
-73,763
-74,38
-74,919
-75,38
-75,765
-76,075
-76,314
-76,483
-76,586
-76,625
-76,604
-76,526
-76,394
-76,211
-75,98
-75,703
-75,384
-75,024
-74,625
-74,189
-73,718
-73,213
-72,675
-72,106
-71,505
-70,873
-70,212
-69,52
-68,799
-68,047
-67,264
-66,45
-65,604
-64,724
-63,81
-62,861
-61,876
-60,854
-59,795
-58,697
-57,559
-56,383
-55,166
-53,91
-52,614
-51,279
-49,907
-48,499
-47,056
-45,582
-44,079
-42,549
-40,997
-39,426
-37,84
-36,242
-34,637
-33,029
-31,423
-29,822
-28,231
-26,654
-25,097
-23,563
-22,057
-20,583
-19,147
-17,75
-16,398
-15,093
-13,839
-12,638
-11,494
-10,409
-9,385
-8,423
-7,525
-6,692
-5,924
-5,221
-4,582
-4,006
-3,492
-3,037
-2,64
-2,296
-2,005
-1,762
-1,565
-1,41
-1,294
-1,212
-1,161
-1,136
-1,134
-1,15
-1,18
-1,219
-1,264
-1,309
-1,351
-1,386
-1,409
-1,415
-1,402
-1,364
-1,296
-1,195
-1,057
-0,877
-0,651
-0,376
-0,049
0,334
0,776
1,279
1,848
2,485
3,192
3,974
4,833
5,771
6,792
7,898
9,09
10,371
11,743
13,207
14,766
16,42
18,172
20,022
21,973
24,023
26,173
28,423
30,772
33,218
35,759
38,394
41,119
43,932
46,83
49,809
52,865
55,993
59,19
62,45
65,767
69,133
72,542
75,985
79,451
82,933
86,418
89,896
93,358
96,792
100,186
103,53
106,812
110,021
113,142
116,16
119,061
121,826
124,439
126,887
129,159
131,242
133,131
134,818
136,292
137,546
138,569
139,341
139,85
140,076
140,007
139,641
138,983
138,045
136,847
135,402
133,723
131,822
129,703
127,376
124,857
122,166
119,338
116,43
113,505
110,642
107,921
105,396
103,096
101,021
99,179
97,594
96,307
95,375
94,839
94,69
94,939
95,628
96,712
98,095
99,549
100,667
101,197
101,087
100,335
99,025
97,275
95,096
92,837
91,233
90,711
91,486
93,527
96,367
99,739
103,696
107,778
111,119
113,055
112,771
109,968
105,208
98,759
90,814
82,2
73,953
67,43
64,854
68,066
78,234
96,869
125,051
163,264
212,126
271,514
339,903
415,475
496,116
578,797
660,767
739,407
811,274
873,073
922,323
956,816
974,994
976,611
961,567
929,791
882,446
821,483
749,251
668,939
584,012
497,16
411,192
329,635
255,523
191,384
139,166
99,344
71,487
55,437
50,734
55,802
68,572
86,498
106,94
128,317
149,608
169,46
186,371
199,299
207,895
212,668
214,567
214,107
211,629
207,766
203,585
200,356
198,849
199,152
200,968
204
208,005
212,683
217,423
221,348
223,892
224,86
224,277
222,353
219,275
215,188
210,374
205,208
199,931
194,679
189,511
184,39
179,32
174,334
169,43
164,61
159,9
155,339
150,987
146,895
143,078
139,53
136,241
133,2
130,407
127,858
125,532
123,414
121,489
119,746
118,178
116,76
115,46
114,237
113,048
111,867
110,687
109,502
108,32
107,148
105,994
104,875
103,814
102,828
101,935
101,147
100,478
99,946
99,572
99,382
99,404
99,661
100,17
100,94
101,972
103,259
104,791
106,549
108,51
110,645
112,923
115,313
117,789
120,33
122,918
125,526
128,125
130,68
133,152
135,51
137,74
139,827
141,758
143,533
145,155
146,65
148,058
149,402
150,687
151,904
153,023
154,031
154,919
155,679
156,307
156,788
157,088
157,186
157,057
156,653
155,909
154,724
152,968
150,545
147,391
143,467
138,757
133,229
126,844
119,576
111,401
102,303
92,271
81,273
69,281
56,316
42,43
27,729
12,361
-3,558
-19,937
-36,692
-53,75
-71,015
-88,376
-105,736
-122,997
-140,044
-156,744
-172,928
-188,425
-203,117
-216,927
-229,822
-241,81
-252,881
-263,019
-272,223
-280,497
-287,864
-294,365
-300,03
-304,898
-309,042
-312,561
-315,597
-318,299
-320,778
-323,113
-325,36
-327,55
-329,72
-331,904
-334,114
-336,353
-338,621
-340,911
-343,226
-345,562
-347,894
-350,175
-352,341
-354,318
-356,058
-357,529
-358,71
-359,591
-360,167
-360,437
-360,417
-360,13
-359,595
-358,829
-357,847
-356,66
-355,292
-353,772
-352,133
-350,41
-348,631
-346,815
-344,98
-343,139
-341,3
-339,47
-337,65
-335,833
-334,021
-332,215
-330,416
-328,628
-326,853
-325,091
-323,343
-321,61
-319,892
-318,191
-316,51
-314,851
-313,216
-311,609
-310,033
-308,492
-306,989
-305,525
-304,104
-302,724
-301,387
-300,094
-298,844
-297,637
-296,474
-295,354
-294,278
-293,246
-292,258
-291,313
-290,413
-289,557
-288,745
-287,978
-287,254
-286,573
-285,935
-285,339
-284,784
-284,268
-283,79
-283,348
-282,94
-282,565
-282,221
-281,906
-281,618
-281,356
-281,117
-280,901
-280,706
-280,529
-280,371
-280,228
-280,1
-279,986
-279,885
-279,796
-279,717
-279,647
-279,585
-279,531
-279,483
-279,439
-279,399
-279,362
-279,326
-279,29
-279,253
-279,215
-279,172
-279,126
-279,074
-279,015
-278,949
-278,874
-278,79
-278,695
-278,588
-278,469
-278,336
-278,188
-278,024
-277,843
-277,644
-277,425
-277,187
-276,926
-276,644
-276,337
-276,006
-275,649
-275,264
-274,851
-274,409
-273,937
-273,433
-272,898
-272,331
-271,73
-271,097
-270,431
-269,732
-269,002
-268,239
-267,446
-266,622
-265,77
-264,889
-263,981
-263,048
-262,091
-261,111
-260,11
-259,089
-258,051
-256,996
-255,927
-254,845
-253,751
-252,648
-251,536
-250,419
-249,297
-248,173
-247,049
-245,925
-244,805
-243,69
-242,581
-241,48
-240,389
-239,307
-238,237
-237,179
-236,132
-235,098
-234,076
-233,066
-232,068
-231,082
-230,105
-229,138
-228,18
-227,23
-226,285
-225,346
-224,41
-223,477
-222,544
-221,611
-220,676
-219,737
-218,792
-217,841
-216,88
-215,908
-214,922
-213,92
-212,899
-211,857
-210,79
-209,696
-208,572
-207,415
-206,224
-204,995
-203,727
-202,416
-201,061
-199,66
-198,21
-196,709
-195,156
-193,549
-191,886
-190,165
-188,386
-186,546
-184,645
-182,682
-180,654
-178,563
-176,405
-174,182
-171,892
-169,536
-167,114
-164,627
-162,076
-159,462
-156,788
-154,057
-151,27
-148,431
-145,543
-142,61
-139,635
-136,623
-133,576
-130,501
-127,402
-124,283
-121,15
-118,009
-114,865
-111,725
-108,593
-105,477
-102,382
-99,313
-96,278
-93,281
-90,328
-87,426
-84,58
-81,794
-79,074
-76,424
-73,848
-71,35
-68,931
-66,594
-64,34
-62,171
-60,086
-58,085
-56,168
-54,333
-52,579
-50,903
-49,302
-47,773
-46,311
-44,912
-43,569
-42,276
-41,026
-39,811
-38,623
-37,454
-36,295
-35,136
-33,97
-32,788
-31,581
-30,343
-29,068
-27,747
-26,375
-24,942
-23,441
-21,864
-20,205
-18,454
-16,604
-14,648
-12,581
-10,402
-8,109
-5,7
-3,173
-0,518
2,266
5,179
8,215
11,368
14,627
17,981
21,411
24,886
28,378
31,858
35,306
38,715
42,081
45,394
48,639
51,8
54,865
57,843
60,743
63,569
66,33
69,036
71,714
74,417
77,192
80,072
83,071
86,172
89,344
92,566
95,824
99,108
102,398
105,631
108,719
111,58
114,135
116,317
118,059
119,234
119,68
119,319
118,184
116,44
114,289
111,795
108,841
105,298
101,195
96,562
91,312
85,131
77,613
68,702
58,869
48,839
39,122
30,102
22,205
16,063
12,494
11,885
13,913
17,834
23,027
29,05
35,508
41,86
47,328
51,396
54,045
55,6
56,343
56,345
55,559
53,981
51,741
48,909
45,443
41,231
36,323
31,087
26,02
21,61
18,333
16,684
16,981
19,246
23,117
27,743
32,229
36,059
38,884
40,409
40,889
41,3
43,282
49,276
61,794
82,546
112,853
153,813
205,537
267,134
336,756
411,296
487,239
561,52
631,091
692,976
744,94
785,219
812,694
827,212
828,881
817,954
795,038
760,699
715,507
660,513
596,99
526,581
451,626
374,434
297,476
223,919
156,769
98,518
51,139
15,239
-9,714
-24,347
-29,92
-28,617
-22,555
-13,962
-4,838
4,225
13,246
21,991
30,564
39,202
47,762
56,519
65,686
74,433
81,902
87,64
91,195
92,69
92,818
91,839
90,001
88,078
86,629
86,008
86,539
87,973
89,693
91,421
92,955
94,016
94,55
94,522
93,881
92,844
91,739
90,749
90
89,547
89,32
89,275
89,392
89,612
89,873
90,135
90,375
90,605
90,876
91,243
91,742
92,394
93,208
94,187
95,339
96,684
98,241
100,022
102,042
104,306
106,818
109,586
112,609
115,873
119,348
122,993
126,778
130,691
134,727
138,888
143,175
147,586
152,128
156,812
161,649
166,646
171,807
177,132
182,624
188,293
194,151
200,217
206,498
212,998
219,713
226,638
233,763
241,076
248,557
256,178
263,915
271,743
279,636
287,57
295,521
303,463
311,374
319,23
327,002
334,658
342,164
349,477
356,562
363,382
369,894
376,066
381,867
387,272
392,272
396,859
401,015
404,72
407,944
410,654
412,838
414,491
415,614
416,221
416,331
415,966
415,173
413,997
412,454
410,552
408,269
405,567
402,432
398,86
394,848
390,411
385,537
380,206
374,404
368,101
361,255
353,819
345,713
336,863
327,243
316,852
305,732
293,96
281,592
268,684
255,307
241,526
227,419
213,088
198,62
184,121
169,726
155,573
141,825
128,649
116,158
104,438
93,541
83,477
74,264
65,911
58,399
51,707
45,809
40,654
36,197
32,38
29,107
26,282
23,803
21,555
19,46
17,455
15,489
13,539
11,586
9,614
7,626
5,628
3,622
1,622
-0,357
-2,3
-4,163
-5,913
-7,522
-8,959
-10,206
-11,259
-12,109
-12,763
-13,24
-13,552
-13,722
-13,772
-13,72
-13,587
-13,396
-13,171
-12,941
-12,732
-12,561
-12,443
-12,391
-12,412
-12,512
-12,694
-12,953
-13,285
-13,687
-14,154
-14,685
-15,274
-15,916
-16,604
-17,333
-18,095
-18,886
-19,701
-20,535
-21,385
-22,246
-23,115
-23,991
-24,872
-25,753
-26,632
-27,505
-28,368
-29,219
-30,054
-30,871
-31,667
-32,44
-33,189
-33,914
-34,614
-35,29
-35,941
-36,57
-37,177
-37,764
-38,332
-38,884
-39,421
-39,944
-40,457
-40,961
-41,458
-41,95
-42,439
-42,926
-43,413
-43,901
-44,391
-44,885
-45,383
-45,885
-46,393
-46,907
-47,426
-47,953
-48,485
-49,025
-49,572
-50,125
-50,685
-51,25
-51,82
-52,393
-52,966
-53,54
-54,112
-54,68
-55,243
-55,8
-56,348
-56,888
-57,417
-57,935
-58,441
-58,934
-59,413
-59,877
-60,327
-60,763
-61,183
-61,589
-61,981
-62,36
-62,725
-63,079
-63,421
-63,752
-64,072
-64,383
-64,685
-64,978
-65,263
-65,542
-65,816
-66,086
-66,353
-66,618
-66,883
-67,149
-67,416
-67,686
-67,958
-68,232
-68,509
-68,788
-69,069
-69,35
-69,631
-69,912
-70,191
-70,467
-70,739
-71,005
-71,265
-71,516
-71,758
-71,99
-72,211
-72,42
-72,617
-72,803
-72,976
-73,137
-73,285
-73,422
-73,547
-73,66
-73,762
-73,852
-73,932
-74,001
-74,062
-74,116
-74,163
-74,208
-74,252
-74,297
-74,348
-74,407
-74,478
-74,565
-74,671
-74,8
-74,957
-75,145
-75,368
-75,629
-75,933
-76,281
-76,677
-77,124
-77,621
-78,172
-78,777
-79,437
-80,152
-80,921
-81,746
-82,626
-83,561
-84,549
-85,59
-86,682
-87,823
-89,012
-90,245
-91,519
-92,831
-94,176
-95,549
-96,946
-98,362
-99,791
-101,227
-102,663
-104,094
-105,513
-106,914
-108,289
-109,632
-110,939
-112,201
-113,415
-114,575
-115,677
-116,717
-117,691
-118,595
-119,427
-120,184
-120,864
-121,464
-121,982
-122,417
-122,769
-123,035
-123,217
-123,315
-123,329
-123,26
-123,111
-122,882
-122,577
-122,2
-121,752
-121,239
-120,665
-120,036
-119,355
-118,629
-117,865
-117,067
-116,243
-115,398
-114,537
-113,668
-112,795
-111,925
-111,061
-110,209
-109,374
-108,56
-107,77
-107,01
-106,281
-105,588
-104,932
-104,316
-103,741
-103,211
-102,724
-102,283
-101,888
-101,537
-101,232
-100,971
-100,751
-100,57
-100,426
-100,315
-100,234
-100,176
-100,139
-100,115
-100,101
-100,09
-100,076
-100,051
-100,011
-99,947
-99,854
-99,724
-99,551
-99,328
-99,051
-98,712
-98,308
-97,833
-97,282
-96,651
-95,935
-95,132
-94,237
-93,248
-92,163
-90,979
-89,695
-88,311
-86,826
-85,243
-83,562
-81,784
-79,913
-77,952
-75,905
-73,776
-71,569
-69,289
-66,942
-64,536
-62,078
-59,577
-57,043
-54,486
-51,919
-49,355
-46,806
-44,283
-41,798
-39,362
-36,988
-34,686
-32,47
-30,354
-28,351
-26,478
-24,752
-23,19
-21,804
-20,605
-19,597
-18,786
-18,18
-17,786
-17,613
-17,671
-17,976
-18,545
-19,399
-20,555
-22,015
-23,775
-25,823
-28,15
-30,75
-33,609
-36,719
-40,062
-43,619
-47,377
-51,309
-55,367
-59,486
-63,585
-67,573
-71,39
-74,986
-78,313
-81,32
-83,936
-86,094
-87,776
-88,962
-89,598
-89,685
-89,26
-88,441
-87,522
-86,82
-86,561
-86,929
-88,081
-89,961
-92,391
-95,047
-97,321
-98,595
-98,452
-96,746
-93,439
-88,875
-83,974
-79,684
-77,105
-77,75
-81,517
-87,814
-98,015
-111,86
-130,828
-156,741
-184,241
-208,877
-225,024
-226,19
-215,563
-196,118
-170,159
-141,75
-108,251
-67,585
-20,155
35,009
95,902
160,231
227,229
295,359
363,513
430,914
496,052
556,986
611,67
657,793
693,151
715,757
723,681
715,37
689,724
646,503
586,533
511,651
424,599
329,026
229,034
128,72
32,63
-54,944
-130,539
-191,568
-236,903
-266,904
-282,511
-284,968
-276,595
-260,205
-238,777
-215,363
-191,975
-169,62
-149,344
-132,253
-118,926
-109,626
-103,963
-100,912
-99,957
-100,982
-103,514
-106,823
-110,02
-112,065
-112,551
-111,702
-109,584
-106,217
-101,782
-96,52
-90,962
-85,896
-81,696
-78,368
-75,867
-74,036
-72,745
-71,952
-71,463
-70,965
-70,285
-69,349
-68,159
-66,822
-65,4
-63,908
-62,385
-60,869
-59,391
-57,981
-56,634
-55,317
-53,987
-52,586
-51,071
-49,416
-47,596
-45,599
-43,407
-40,996
-38,355
-35,479
-32,364
-29,013
-25,419
-21,569
-17,468
-13,126
-8,566
-3,83
1,062
6,093
11,249
16,522
21,908
27,402
33,024
38,789
44,7
50,747
56,891
63,109
69,41
75,812
82,349
89,05
95,893
102,889
110,099
117,514
125,097
132,708
140,064
147,048
153,726
160,191
166,586
173,095
179,866
187,316
196,095
206,446
218,301
231,327
244,908
258,544
271,756
283,703
293,425
300,439
304,564
306,144
305,918
304,345
302,062
299,975
298,848
299,184
301,299
304,965
309,758
315,553
321,824
327,973
333,674
338,562
342,385
345,21
347,001
347,553
347,056
345,647
343,291
340,108
336,095
331,159
325,378
318,843
311,452
303,168
293,992
283,856
272,819
260,952
248,29
234,934
221,019
206,676
192,032
177,19
162,216
147,177
132,143
117,174
102,345
87,726
73,41
59,529
46,208
33,566
21,684
10,589
0,308
-9,133
-17,709
-25,388
-32,144
-37,966
-42,837
-46,736
-49,663
-51,634
-52,713
-53,011
-52,653
-51,777
-50,496
-48,893
-47,056
-45,083
-43,067
-41,108
-39,291
-37,686
-36,373
-35,439
-34,958
-34,981
-35,525
-36,562
-38,05
-39,924
-42,131
-44,624
-47,345
-50,229
-53,205
-56,196
-59,142
-61,997
-64,706
-67,204
-69,438
-71,362
-72,951
-74,207
-75,14
-75,769
-76,115
-76,198
-76,052
-75,715
-75,23
-74,647
-74,001
-73,317
-72,622
-71,945
-71,31
-70,741
-70,248
-69,83
-69,487
-69,217
-69,018
-68,884
-68,806
-68,768
-68,754
-68,745
-68,729
-68,699
-68,648
-68,571
-68,466
-68,33
-68,166
-67,981
-67,779
-67,564
-67,336
-67,099
-66,857
-66,614
-66,376
-66,147
-65,931
-65,732
-65,551
-65,39
-65,251
-65,133
-65,035
-64,957
-64,896
-64,852
-64,825
-64,815
-64,823
-64,847
-64,889
-64,948
-65,024
-65,116
-65,224
-65,346
-65,481
-65,628
-65,785
-65,951
-66,125
-66,304
-66,489
-66,678
-66,87
-67,063
-67,256
-67,448
-67,638
-67,825
-68,008
-68,185
-68,357
-68,523
-68,681
-68,833
-68,978
-69,115
-69,245
-69,367
-69,482
-69,59
-69,689
-69,782
-69,867
-69,945
-70,016
-70,082
-70,142
-70,198
-70,25
-70,3
-70,347
-70,392
-70,437
-70,481
-70,526
-70,571
-70,617
-70,665
-70,716
-70,77
-70,828
-70,891
-70,959
-71,032
-71,111
-71,195
-71,285
-71,379
-71,479
-71,583
-71,69
-71,801
-71,915
-72,032
-72,15
-72,269
-72,388
-72,507
-72,623
-72,737
-72,847
-72,953
-73,054
-73,149
-73,237
-73,319
-73,394
-73,46
-73,519
-73,568
-73,607
-73,636
-73,654
-73,661
-73,655
-73,638
-73,608
-73,566
-73,512
-73,447
-73,371
-73,284
-73,187
-73,081
-72,965
-72,841
-72,709
-72,571
-72,426
-72,275
-72,12
-71,96
-71,797
-71,63
-71,459
-71,285
-71,107
-70,925
-70,739
-70,549
-70,355
-70,157
-69,956
-69,75
-69,542
-69,329
-69,114
-68,894
-68,671
-68,443
-68,212
-67,976
-67,737
-67,493
-67,246
-66,995
-66,742
-66,486
-66,229
-65,971
-65,712
-65,455
-65,2
-64,95
-64,705
-64,47
-64,245
-64,034
-63,84
-63,665
-63,512
-63,385
-63,284
-63,214
-63,176
-63,173
-63,206
-63,279
-63,392
-63,548
-63,748
-63,994
-64,286
-64,625
-65,01
-65,441
-65,918
-66,438
-67
-67,603
-68,243
-68,917
-69,623
-70,356
-71,112
-71,885
-72,67
-73,461
-74,25
-75,032
-75,797
-76,54
-77,251
-77,925
-78,553
-79,128
-79,642
-80,089
-80,462
-80,752
-80,954
-81,061
-81,066
-80,965
-80,753
-80,427
-79,982
-79,418
-78,732
-77,923
-76,992
-75,938
-74,764
-73,47
-72,061
-70,54
-68,911
-67,181
-65,356
-63,444
-61,452
-59,391
-57,271
-55,102
-52,897
-50,669
-48,432
-46,199
-43,985
-41,803
-39,671
-37,602
-35,61
-33,71
-31,917
-30,249
-28,722
-27,355
-26,163
-25,16
-24,358
-23,769
-23,4
-23,26
-23,354
-23,688
-24,272
-25,119
-26,244
-27,665
-29,392
-31,425
-33,759
-36,38
-39,275
-42,431
-45,825
-49,44
-53,262
-57,273
-61,458
-65,794
-70,236
-74,724
-79,179
-83,507
-87,63
-91,484
-95,023
-98,236
-101,091
-103,549
-105,589
-107,173
-108,275
-108,921
-109,093
-108,754
-107,962
-106,836
-105,63
-104,757
-104,475
-104,845
-105,893
-107,598
-109,945
-112,895
-116,052
-118,644
-120,109
-120,229
-119,113
-117,093
-114,295
-110,774
-106,984
-103,928
-102,735
-104,162
-108,308
-114,809
-123,262
-133,192
-143,888
-153,866
-160,804
-162,413
-156,799
-142,381
-118,125
-83,263
-37,003
20,554
87,988
163,278
243,848
326,656
408,993
488,054
560,408
622,896
673,006
708,727
728,831
732,841
720,469
691,845
648,029
590,689
522,005
444,609
361,394
275,316
189,313
106,403
29,423
-39,147
-97,324
-143,871
-178,518
-201,591
-213,55
-215,189
-207,843
-193,365
-174,011
-151,892
-128,477
-104,953
-82,728
-63,459
-48,527
-38,479
-33,015
-31,492
-33,423
-38,324
-45,359
-53,044
-59,701
-64,307
-66,549
-66,54
-64,489
-60,583
-55,156
-48,972
-43,053
-38,045
-34,193
-31,467
-29,677
-28,669
-28,315
-28,35
-28,393
-28,217
-27,724
-26,908
-25,871
-24,676
-23,336
-21,894
-20,4
-18,868
-17,298
-15,671
-13,928
-12,042
-10,011
-7,821
-5,477
-2,975
-0,306
2,526
5,516
8,668
11,981
15,45
19,074
22,838
26,723
30,709
34,761
38,859
42,995
47,163
51,366
55,608
59,894
64,232
68,639
73,129
77,712
82,402
87,205
92,139
97,221
102,473
107,918
113,571
119,445
125,546
131,881
138,452
145,258
152,288
159,527
166,957
174,557
182,304
190,17
198,12
206,119
214,133
222,129
230,08
237,953
245,719
253,35
260,816
268,093
275,171
282,039
288,691
295,133
301,369
307,411
313,285
318,998
324,555
329,953
335,175
340,21
345,035
349,622
353,94
357,955
361,613
364,865
367,652
369,896
371,532
372,492
372,693
372,077
370,598
368,215
364,907
360,665
355,487
349,389
342,389
334,505
325,778
316,25
305,98
295,05
283,522
271,465
258,965
246,096
232,931
219,55
206,02
192,402
178,759
165,153
151,653
138,338
125,285
112,559
100,213
88,29
76,846
65,937
55,6
45,867
36,762
28,296
20,479
13,323
6,825
0,967
-4,281
-8,971
-13,161
-16,904
-20,241
-23,217
-25,886
-28,298
-30,497
-32,516
-34,377
-36,099
-37,703
-39,205
-40,618
-41,939
-43,157
-44,251
-45,193
-45,965
-46,554
-46,95
-47,141
-47,123
-46,892
-46,457
-45,834
-45,038
-44,083
-42,982
-41,751
-40,411
-38,987
-37,505
-35,994
-34,479
-32,979
-31,511
-30,091
-28,729
-27,435
-26,212
-25,059
-23,977
-22,966
-22,028
-21,163
-20,369
-19,644
-18,985
-18,388
-17,851
-17,37
-16,942
-16,565
-16,237
-15,956
-15,721
-15,533
-15,39
-15,293
-15,24
-15,231
-15,263
-15,337
-15,451
-15,605
-15,796
-16,025
-16,291
-16,593
-16,931
-17,304
-17,714
-18,159
-18,64
-19,156
-19,707
-20,294
-20,915
-21,57
-22,259
-22,982
-23,737
-24,524
-25,342
-26,19
-27,067
-27,971
-28,9
-29,852
-30,823
-31,811
-32,811
-33,821
-34,835
-35,85
-36,862
-37,868
-38,862
-39,843
-40,805
-41,746
-42,662
-43,55
-44,407
-45,23
-46,016
-46,764
-47,472
-48,137
-48,76
-49,338
-49,872
-50,36
-50,802
-51,198
-51,549
-51,854
-52,114
-52,331
-52,506
-52,643
-52,743
-52,811
-52,85
-52,864
-52,859
-52,837
-52,805
-52,766
-52,725
-52,687
-52,656
-52,636
-52,633
-52,649
-52,688
-52,755
-52,851
-52,98
-53,144
-53,344
-53,583
-53,862
-54,182
-54,544
-54,948
-55,397
-55,889
-56,424
-57,003
-57,625
-58,287
-58,989
-59,728
-60,501
-61,305
-62,138
-62,994
-63,871
-64,764
-65,669
-66,582
-67,499
-68,415
-69,326
-70,228
-71,117
-71,989
-72,84
-73,668
-74,469
-75,241
-75,982
-76,689
-77,36
-77,995
-78,591
-79,147
-79,662
-80,134
-80,564
-80,951
-81,295
-81,596
-81,855
-82,072
-82,249
-82,387
-82,488
-82,553
-82,584
-82,585
-82,556
-82,501
-82,423
-82,324
-82,209
-82,078
-81,937
-81,788
-81,633
-81,476
-81,318
-81,163
-81,011
-80,866
-80,729
-80,602
-80,489
-80,389
-80,306
-80,241
-80,196
-80,171
-80,168
-80,187
-80,23
-80,297
-80,389
-80,506
-80,649
-80,818
-81,014
-81,236
-81,484
-81,756
-82,052
-82,369
-82,706
-83,06
-83,428
-83,808
-84,197
-84,593
-84,995
-85,4
-85,805
-86,207
-86,604
-86,994
-87,37
-87,728
-88,061
-88,365
-88,635
-88,867
-89,056
-89,199
-89,29
-89,327
-89,306
-89,226
-89,079
-88,858
-88,552
-88,157
-87,674
-87,108
-86,462
-85,739
-84,94
-84,072
-83,144
-82,163
-81,125
-80,019
-78,833
-77,561
-76,206
-74,779
-73,293
-71,751
-70,147
-68,475
-66,735
-64,932
-63,063
-61,116
-59,073
-56,933
-54,717
-52,471
-50,237
-48,044
-45,912
-43,852
-41,879
-40,022
-38,314
-36,782
-35,442
-34,312
-33,419
-32,809
-32,534
-32,62
-33,063
-33,832
-34,906
-36,286
-37,976
-39,981
-42,289
-44,875
-47,716
-50,803
-54,125
-57,664
-61,39
-65,248
-69,182
-73,156
-77,14
-81,115
-85,04
-88,841
-92,443
-95,774
-98,793
-101,471
-103,776
-105,678
-107,141
-108,135
-108,651
-108,712
-108,347
-107,609
-106,525
-105,085
-103,421
-101,793
-100,466
-99,745
-99,752
-100,415
-101,856
-104,308
-107,716
-111,775
-115,946
-119,452
-121,998
-123,753
-124,557
-124,153
-122,582
-120,211
-118,127
-117,832
-120,147
-125,201
-133,106
-143,757
-156,696
-170,825
-183,721
-192,276
-193,631
-185,37
-165,583
-132,786
-85,931
-25,017
48,287
131,199
220,13
310,988
399,89
482,797
555,553
614,62
657,458
682,354
688,717
676,982
647,806
602,547
543,439
473,074
394,27
310,19
223,821
137,72
54,793
-22,07
-90,605
-148,92
-195,571
-230,104
-252,478
-262,659
-261,688
-251,514
-234,22
-212,248
-188,192
-163,932
-141,294
-122,414
-108,375
-99,299
-94,964
-94,449
-96,443
-100,023
-103,985
-106,626
-106,994
-104,735
-99,727
-92,456
-83,632
-73,748
-63,586
-54,228
-46,29
-40,087
-35,785
-33,172
-32,002
-32,101
-33,113
-34,587
-36,252
-37,933
-39,539
-41,091
-42,549
-43,838
-44,94
-45,843
-46,519
-46,926
-46,989
-46,642
-45,869
-44,686
-43,127
-41,23
-39,017
-36,508
-33,733
-30,723
-27,522
-24,163
-20,67
-17,074
-13,41
-9,722
-6,064
-2,469
1,057
4,514
7,915
11,276
14,607
17,927
21,261
24,634
28,068
31,584
35,197
38,927
42,799
46,841
51,085
55,557
60,269
65,232
70,45
75,93
81,675
87,688
93,961
100,485
107,247
114,235
121,433
128,822
136,373
144,051
151,821
159,65
167,511
175,383
183,24
191,049
198,777
206,384
213,841
221,132
228,242
235,155
241,87
248,386
254,724
260,924
267,01
272,99
278,86
284,591
290,168
295,583
300,825
305,887
310,747
315,364
319,704
323,74
327,416
330,663
333,378
335,422
336,688
337,103
336,616
335,211
332,862
329,527
325,185
319,828
313,451
306,066
297,671
288,243
277,808
266,43
254,216
241,331
227,906
214,04
199,825
185,334
170,652
155,888
141,129
126,445
111,926
97,666
83,789
70,457
57,778
45,817
34,599
24,102
14,318
5,263
-3,063
-10,66
-17,542
-23,74
-29,273
-34,144
-38,391
-42,073
-45,281
-48,148
-50,772
-53,211
-55,509
-57,683
-59,753
-61,752
-63,692
-65,575
-67,4
-69,164
-70,875
-72,551
-74,189
-75,769
-77,251
-78,576
-79,704
-80,617
-81,302
-81,758
-81,986
-81,988
-81,779
-81,387
-80,835
-80,143
-79,327
-78,395
-77,363
-76,258
-75,106
-73,943
-72,793
-71,675
-70,607
-69,6
-68,666
-67,811
-67,037
-66,339
-65,714
-65,161
-64,68
-64,273
-63,941
-63,679
-63,485
-63,356
-63,29
-63,283
-63,334
-63,438
-63,594
-63,798
-64,049
-64,345
-64,684
-65,063
-65,477
-65,923
-66,396
-66,89
-67,403
-67,928
-68,461
-68,998
-69,535
-70,067
-70,592
-71,106
-71,606
-72,089
-72,553
-72,995
-73,414
-73,808
-74,176
-74,516
-74,827
-75,109
-75,36
-75,58
-75,768
-75,925
-76,052
-76,147
-76,213
-76,251
-76,261
-76,247
-76,209
-76,151
-76,075
-75,983
-75,878
-75,764
-75,643
-75,518
-75,392
-75,269
-75,151
-75,041
-74,942
-74,856
-74,787
-74,736
-74,706
-74,699
-74,717
-74,761
-74,833
-74,934
-75,066
-75,23
-75,426
-75,655
-75,917
-76,211
-76,538
-76,896
-77,284
-77,701
-78,145
-78,613
-79,105
-79,617
-80,147
-80,693
-81,252
-81,822
-82,401
-82,985
-83,573
-84,162
-84,749
-85,332
-85,909
-86,478
-87,037
-87,584
-88,117
-88,634
-89,134
-89,615
-90,076
-90,516
-90,933
-91,327
-91,696
-92,041
-92,362
-92,659
-92,931
-93,18
-93,406
-93,61
-93,793
-93,955
-94,097
-94,219
-94,322
-94,408
-94,475
-94,524
-94,556
-94,571
-94,568
-94,548
-94,51
-94,453
-94,378
-94,284
-94,17
-94,036
-93,881
-93,706
-93,511
-93,295
-93,059
-92,804
-92,529
-92,234
-91,921
-91,589
-91,238
-90,869
-90,482
-90,078
-89,658
-89,224
-88,776
-88,317
-87,848
-87,373
-86,892
-86,409
-85,926
-85,446
-84,973
-84,509
-84,058
-83,623
-83,209
-82,818
-82,454
-82,119
-81,815
-81,545
-81,308
-81,105
-80,934
-80,797
-80,691
-80,617
-80,571
-80,555
-80,565
-80,602
-80,664
-80,747
-80,85
-80,965
-81,089
-81,214
-81,333
-81,44
-81,525
-81,58
-81,596
-81,567
-81,485
-81,343
-81,13
-80,833
-80,442
-79,951
-79,357
-78,657
-77,852
-76,944
-75,939
-74,854
-73,701
-72,493
-71,238
-69,937
-68,587
-67,19
-65,746
-64,258
-62,723
-61,126
-59,449
-57,68
-55,805
-53,809
-51,672
-49,358
-46,835
-44,086
-41,1
-37,887
-34,469
-30,863
-27,096
-23,205
-19,237
-15,262
-11,362
-7,602
-4,046
-0,756
2,208
4,755
6,807
8,305
9,199
9,464
9,085
8,047
6,335
3,962
0,958
-2,621
-6,689
-11,182
-16,039
-21,205
-26,624
-32,213
-37,88
-43,548
-49,151
-54,627
-59,914
-64,929
-69,567
-73,751
-77,416
-80,525
-83,078
-85,061
-86,451
-87,223
-87,357
-86,868
-85,794
-84,185
-82,091
-79,573
-76,72
-73,661
-70,561
-67,585
-64,898
-62,647
-60,966
-59,988
-59,83
-60,644
-62,605
-65,789
-70,171
-75,572
-81,621
-87,941
-94,192
-99,92
-104,609
-107,852
-109,4
-109,496
-108,895
-108,309
-108,296
-109,214
-111,184
-114,213
-118,008
-121,321
-122,05
-117,938
-106,748
-86,842
-57,203
-16,826
34,891
97,302
168,634
246,377
327,223
408,125
486,427
558,815
621,726
672,234
707,937
727,135
729,512
714,948
683,138
635,026
572,603
498,274
415,324
327,347
237,053
147,48
62,558
-14,459
-80,866
-134,372
-174,182
-200,294
-212,481
-211,569
-199,822
-179,776
-154,569
-127,623
-101,375
-77,976
-59,591
-47,305
-41,222
-40,929
-45,019
-51,596
-59,103
-65,859
-70,343
-71,778
-69,686
-63,949
-55,217
-44,529
-33,011
-21,885
-12,086
-4,199
1,142
3,467
2,842
-0,159
-4,603
-9,635
-14,681
-19,261
-22,71
-24,257
-23,543
-20,887
-17,053
-12,634
-7,843
-2,669
2,645
7,457
11,272
14,044
16,118
17,822
18,95
18,765
16,806
13,198
8,447
3,352
-1,51
-5,913
-9,175
-10,03
-7,43
-0,792
9,62
22,474
36,44
50,783
64,635
76,848
86,334
92,081
93,94
93,009
90,59
87,497
84,368
81,76
80,285
80,785
83,618
88,326
94,168
100,595
107,32
114,288
121,426
128,455
135,184
141,695
148,257
155,137
162,443
170,129
178,08
186,222
194,533
202,976
211,477
219,969
228,397
236,734
245,002
253,233
261,447
269,669
277,886
286,054
294,148
302,146
310,042
317,854
325,579
333,193
340,666
347,96
355,031
361,842
368,323
374,381
379,915
384,807
388,975
392,376
394,968
396,722
397,607
397,587
396,648
394,791
392,018
388,342
383,772
378,318
372,012
364,905
357,066
348,583
339,528
329,961
319,934
309,495
298,691
287,569
276,172
264,543
252,732
240,801
228,823
216,88
205,06
193,452
182,13
171,16
160,602
150,508
140,929
131,913
123,503
115,735
108,635
102,221
96,494
91,443
87,037
83,228
79,95
77,116
74,647
72,471
70,525
68,762
67,137
65,609
64,148
62,729
61,337
59,964
58,608
57,269
55,96
54,705
53,54
52,517
51,681
51,063
50,691
50,576
50,726
51,147
51,831
52,766
53,935
55,318
56,896
58,652
60,565
62,608
64,749
66,95
69,181
71,418
73,637
75,824
77,963
80,042
82,053
83,994
85,861
87,65
89,357
90,975
92,5
93,928
95,259
96,489
97,618
98,642
99,557
100,36
101,048
101,619
102,072
102,403
102,612
102,697
102,657
102,495
102,216
101,81
101,27
100,592
99,772
98,817
97,741
96,543
95,218
93,812
92,364
90,89
89,406
87,902
86,342
84,723
83,073
81,228
78,984
76,478
73,762
70,776
67,836
64,104
58,794
53,191
47,731
45,003
47,671
53,422
61,039
65,705
62,377
52,43
36,09
19,306
8,378
4,067
8,426
16,513
22,95
26,236
23,524
17,533
11,435
5,816
2,247
-0,159
-2,626
-4,938
-7,276
-9,53
-11,425
-13,151
-14,858
-16,522
-18,163
-19,786
-21,378
-22,934
-24,451
-25,904
-27,269
-28,557
-29,781
-30,943
-32,047
-33,099
-34,1
-35,059
-35,983
-36,876
-37,741
-38,583
-39,406
-40,215
-41,016
-41,812
-42,609
-43,411
-44,223
-45,049
-45,892
-46,757
-47,648
-48,567
-49,518
-50,504
-51,526
-52,587
-53,688
-54,83
-56,013
-57,237
-58,504
-59,811
-61,157
-62,543
-63,965
-65,423
-66,913
-68,433
-69,982
-71,554
-73,149
-74,763
-76,393
-78,037
-79,69
-81,35
-83,015
-84,682
-86,348
-88,009
-89,663
-91,308
-92,94
-94,558
-96,158
-97,74
-99,301
-100,841
-102,357
-103,85
-105,319
-106,762
-108,181
-109,573
-110,941
-112,282
-113,599
-114,89
-116,158
-117,402
-118,624
-119,826
-121,008
-122,171
-123,316
-124,445
-125,559
-126,658
-127,744
-128,818
-129,88
-130,934
-131,981
-133,022
-134,059
-135,094
-136,129
-137,166
-138,204
-139,244
-140,288
-141,337
-142,391
-143,449
-144,511
-145,579
-146,655
-147,742
-148,842
-149,956
-151,085
-152,231
-153,398
-154,59
-155,807
-157,049
-158,314
-159,601
-160,916
-162,267
-163,659
-165,093
-166,564
-168,061
-169,583
-171,129
-172,695
-174,269
-175,832
-177,368
-178,878
-180,373
-181,865
-183,363
-184,847
-186,299
-187,7
-189,039
-190,337
-191,616
-192,868
-194,089
-195,27
-196,411
-197,589
-198,871
-200,192
-201,473
-202,597
-203,448
-204,115
-204,73
-205,263
-205,652
-205,942
-206,222
-206,798
-208,013
-209,75
-211,673
-213,498
-215,047
-216,233
-216,895
-216,519
-214,48
-210,635
-205,322
-199,167
-192,651
-185,966
-179,384
-173,446
-168,861
-166,132
-165,127
-165,16
-165,699
-166,511
-167,358
-167,99
-167,977
-166,812
-164,511
-161,584
-158,422
-155,262
-152,248
-149,375
-146,775
-144,726
-143,263
-142,198
-141,396
-140,744
-140,229
-139,959
-139,982
-140,275
-140,854
-141,749
-142,982
-144,579
-146,534
-148,801
-151,348
-154,147
-157,171
-160,403
-163,82
-167,396
-171,082
-174,818
-178,52
-182,084
-185,422
-188,464
-191,155
-193,465
-195,374
-196,866
-197,928
-198,562
-198,757
-198,504
-197,827
-196,735
-195,228
-193,401
-191,433
-189,6
-188,311
-187,934
-188,604
-190,422
-193,496
-197,656
-202,653
-208,009
-212,693
-215,762
-216,807
-215,557
-212,002
-206,698
-200,114
-193,091
-187,54
-185,22
-187,246
-194,411
-206,517
-222,418
-240,987
-260,353
-277,201
-288,121
-289,82
-279,231
-254,714
-215,631
-161,608
-93,355
-13,026
76,505
171,511
267,796
361,832
450,351
530,009
597,863
651,47
688,969
709,318
712,231
697,665
665,781
617,357
553,93
477,809
391,896
299,559
204,09
108,722
17,3
-66,41
-139,349
-199,238
-244,989
-276,706
-294,712
-299,521
-293,05
-278,017
-257,331
-234,034
-210,384
-187,833
-168,093
-153,073
-143,541
-139,353
-139,771
-143,441
-149,3
-156,631
-164,206
-170,372
-174,096
-174,959
-173,028
-168,923
-163,207
-156,283
-148,889
-142,036
-136,386
-132,252
-129,682
-128,391
-128,104
-128,65
-129,715
-130,883
-131,899
-132,633
-133,039
-133,207
-133,186
-132,955
-132,544
-131,995
-131,318
-130,531
-129,631
-128,58
-127,37
-126,001
-124,457
-122,743
-120,856
-118,777
-116,504
-114,03
-111,347
-108,461
-105,378
-102,096
-98,624
-94,967
-91,126
-87,116
-82,949
-78,64
-74,219
-69,701
-65,09
-60,395
-55,612
-50,736
-45,766
-40,689
-35,486
-30,147
-24,656
-19
-13,166
-7,133
-0,88
5,611
12,361
19,38
26,668
34,219
42,017
50,038
58,256
66,645
75,176
83,829
92,586
101,422
110,313
119,226
128,128
137,001
145,827
154,593
163,295
171,939
180,54
189,139
197,768
206,449
215,19
223,977
232,786
241,597
250,386
259,134
267,812
276,373
284,763
292,928
300,8
308,303
315,337
321,767
327,459
332,302
336,206
339,114
340,986
341,784
341,475
340,034
337,442
333,707
328,847
322,882
315,844
307,774
298,748
288,887
278,327
267,196
255,607
243,652
231,413
218,983
206,456
193,927
181,497
169,24
157,227
145,533
134,23
123,393
113,07
103,269
93,979
85,188
76,888
69,082
61,77
54,933
48,542
42,56
36,939
31,648
26,658
21,933
17,438
13,129
8,982
4,989
1,152
-2,527
-6,052
-9,431
-12,668
-15,752
-18,672
-21,404
-23,912
-26,168
-28,138
-29,794
-31,121
-32,103
-32,744
-33,047
-33,018
-32,659
-31,971
-30,952
-29,606
-27,936
-25,935
-23,618
-21,02
-18,19
-15,199
-12,101
-8,934
-5,729
-2,504
0,72
3,912
7,045
10,095
13,033
15,83
18,443
20,812
22,902
24,71
26,253
27,583
28,735
29,724
30,569
31,278
31,864
32,349
32,743
33,047
33,272
33,436
33,572
33,733
33,95
34,228
34,558
34,907
35,253
35,588
35,9
36,177
36,41
36,59
36,72
36,813
36,875
36,903
36,889
36,812
36,663
36,444
36,163
35,837
35,479
35,095
34,696
34,294
33,898
33,514
33,141
32,772
32,403
32,036
31,672
31,315
30,967
30,627
30,294
29,967
29,644
29,323
29,002
28,676
28,344
28,003
27,653
27,297
26,935
26,566
26,19
25,808
25,418
25,022
24,618
24,204
23,781
23,347
22,902
22,446
21,979
21,5
21,01
20,509
19,996
19,473
18,94
18,397
17,845
17,286
16,72
16,149
15,574
14,997
14,42
13,843
13,27
12,703
12,142
11,591
11,051
10,524
10,012
9,517
9,039
8,582
8,146
7,734
7,345
6,982
6,646
6,338
6,059
5,809
5,589
5,4
5,241
5,113
5,015
4,946
4,906
4,894
4,908
4,946
5,007
5,088
5,186
5,301
5,428
5,565
5,709
5,857
6,007
6,155
6,298
6,434
6,561
6,675
6,775
6,858
6,922
6,966
6,987
6,985
6,957
6,903
6,821
6,71
6,571
6,402
6,203
5,975
5,719
5,434
5,124
4,787
4,427
4,045
3,643
3,222
2,785
2,334
1,871
1,398
0,917
0,43
-0,061
-0,554
-1,047
-1,54
-2,031
-2,519
-3,002
-3,482
-3,956
-4,425
-4,888
-5,345
-5,796
-6,24
-6,679
-7,112
-7,54
-7,964
-8,386
-8,805
-9,225
-9,647
-10,072
-10,501
-10,938
-11,383
-11,837
-12,303
-12,781
-13,273
-13,78
-14,303
-14,842
-15,399
-15,972
-16,563
-17,17
-17,794
-18,433
-19,086
-19,753
-20,432
-21,123
-21,824
-22,535
-23,254
-23,981
-24,715
-25,453
-26,194
-26,937
-27,678
-28,417
-29,151
-29,877
-30,595
-31,3
-31,993
-32,672
-33,335
-33,98
-34,607
-35,214
-35,801
-36,366
-36,909
-37,431
-37,931
-38,41
-38,868
-39,307
-39,727
-40,128
-40,511
-40,875
-41,22
-41,546
-41,849
-42,129
-42,386
-42,618
-42,825
-43,006
-43,162
-43,292
-43,4
-43,484
-43,544
-43,578
-43,585
-43,562
-43,505
-43,413
-43,279
-43,102
-42,877
-42,602
-42,276
-41,899
-41,465
-40,97
-40,405
-39,767
-39,055
-38,27
-37,411
-36,485
-35,496
-34,461
-33,402
-32,334
-31,266
-30,201
-29,135
-28,068
-27
-25,929
-24,855
-23,773
-22,68
-21,575
-20,466
-19,35
-18,218
-17,05
-15,808
-14,475
-13,05
-11,542
-9,973
-8,37
-6,763
-5,195
-3,724
-2,401
-1,274
-0,38
0,259
0,608
0,623
0,254
-0,571
-1,902
-3,766
-6,187
-9,172
-12,711
-16,787
-21,35
-26,32
-31,627
-37,194
-42,952
-48,844
-54,798
-60,733
-66,568
-72,203
-77,547
-82,516
-87,02
-90,984
-94,35
-97,082
-99,183
-100,693
-101,662
-102,157
-102,249
-102,011
-101,548
-100,971
-100,403
-99,979
-99,819
-100,075
-100,958
-102,609
-105,077
-108,305
-112,024
-115,923
-119,757
-123,177
-125,759
-127,243
-127,467
-126,557
-125,177
-123,95
-123,242
-123,434
-124,636
-126,589
-128,932
-130,685
-129,913
-124,665
-113,197
-93,799
-65,451
-27,61
20,233
77,694
143,213
214,853
290,307
366,911
442,364
514,324
579,999
636,966
683,282
717,245
737,563
743,343
733,898
709,001
669,143
615,316
549,101
472,592
388,462
299,819
209,719
121,389
38,179
-36,915
-101,386
-153,27
-191,736
-216,783
-228,468
-227,652
-216,249
-196,581
-171,385
-143,544
-115,257
-88,42
-65,306
-47,68
-36,261
-31,069
-31,342
-35,835
-43,51
-53,234
-63,283
-71,95
-78,18
-81,498
-82,02
-80,253
-76,629
-71,634
-66,125
-61,076
-57,102
-54,467
-53,133
-52,824
-53,315
-54,429
-55,849
-57,197
-58,244
-58,872
-59,068
-58,929
-58,525
-57,892
-57,098
-56,203
-55,247
-54,264
-53,262
-52,219
-51,117
-49,927
-48,628
-47,214
-45,674
-44,003
-42,199
-40,25
-38,143
-35,87
-33,424
-30,801
-28
-25,011
-21,833
-18,476
-14,959
-11,316
-7,569
-3,728
0,201
4,22
8,332
12,535
16,837
21,252
25,791
30,466
35,288
40,263
45,401
50,718
56,232
61,97
67,951
74,19
80,696
87,466
94,496
101,775
109,287
117,006
124,9
132,933
141,07
149,281
157,538
165,815
174,082
182,302
190,435
198,445
206,305
214
221,516
228,841
235,976
242,931
249,738
256,434
263,046
269,58
276,027
282,373
288,608
294,728
300,722
306,571
312,239
317,685
322,87
327,747
332,247
336,276
339,708
342,413
344,295
345,286
345,339
344,413
342,459
339,438
335,325
330,112
323,803
316,397
307,883
298,282
287,656
276,105
263,776
250,809
237,318
223,4
209,148
194,665
180,063
165,446
150,905
136,532
122,431
108,734
95,579
83,069
71,263
60,18
49,81
40,147
31,198
22,963
15,433
8,584
2,382
-3,198
-8,179
-12,608
-16,555
-20,124
-23,425
-26,536
-29,507
-32,367
-35,133
-37,826
-40,467
-43,063
-45,61
-48,101
-50,531
-52,901
-55,211
-57,445
-59,566
-61,518
-63,255
-64,746
-65,978
-66,944
-67,645
-68,079
-68,257
-68,198
-67,928
-67,47
-66,843
-66,06
-65,139
-64,106
-62,993
-61,834
-60,661
-59,496
-58,357
-57,261
-56,22
-55,247
-54,344
-53,513
-52,752
-52,062
-51,446
-50,909
-50,451
-50,072
-49,771
-49,547
-49,397
-49,321
-49,318
-49,385
-49,52
-49,722
-49,989
-50,321
-50,715
-51,168
-51,675
-52,231
-52,833
-53,474
-54,15
-54,855
-55,582
-56,328
-57,087
-57,855
-58,628
-59,402
-60,173
-60,938
-61,693
-62,437
-63,167
-63,88
-64,573
-65,246
-65,897
-66,523
-67,124
-67,699
-68,246
-68,766
-69,257
-69,721
-70,157
-70,567
-70,951
-71,311
-71,648
-71,966
-72,266
-72,55
-72,822
-73,084
-73,34
-73,591
-73,84
-74,09
-74,343
-74,601
-74,866
-75,139
-75,422
-75,716
-76,022
-76,34
-76,671
-77,015
-77,373
-77,745
-78,131
-78,53
-78,942
-79,366
-79,801
-80,246
-80,7
-81,161
-81,626
-82,094
-82,562
-83,026
-83,486
-83,936
-84,374
-84,796
-85,2
-85,581
-85,936
-86,263
-86,558
-86,82
-87,045
-87,231
-87,377
-87,481
-87,542
-87,558
-87,53
-87,457
-87,338
-87,174
-86,964
-86,709
-86,409
-86,067
-85,683
-85,259
-84,797
-84,3
-83,77
-83,21
-82,623
-82,013
-81,383
-80,737
-80,08
-79,415
-78,748
-78,081
-77,42
-76,769
-76,131
-75,51
-74,909
-74,332
-73,781
-73,259
-72,768
-72,31
-71,888
-71,502
-71,155
-70,847
-70,58
-70,354
-70,169
-70,025
-69,921
-69,858
-69,834
-69,848
-69,898
-69,982
-70,099
-70,246
-70,421
-70,621
-70,843
-71,084
-71,341
-71,611
-71,891
-72,179
-72,471
-72,766
-73,062
-73,357
-73,65
-73,939
-74,224
-74,502
-74,774
-75,037
-75,292
-75,539
-75,775
-76,003
-76,222
-76,432
-76,635
-76,831
-77,021
-77,206
-77,389
-77,569
-77,749
-77,932
-78,119
-78,313
-78,516
-78,732
-78,963
-79,211
-79,477
-79,764
-80,074
-80,406
-80,761
-81,141
-81,544
-81,973
-82,425
-82,903
-83,405
-83,932
-84,482
-85,057
-85,654
-86,273
-86,913
-87,572
-88,25
-88,944
-89,653
-90,376
-91,11
-91,853
-92,602
-93,353
-94,104
-94,847
-95,578
-96,293
-96,987
-97,655
-98,293
-98,898
-99,467
-99,997
-100,488
-100,937
-101,341
-101,696
-101,996
-102,239
-102,419
-102,531
-102,568
-102,526
-102,401
-102,19
-101,893
-101,505
-101,021
-100,432
-99,733
-98,923
-98,003
-96,972
-95,835
-94,596
-93,268
-91,872
-90,43
-88,953
-87,447
-85,91
-84,34
-82,737
-81,102
-79,435
-77,724
-75,958
-74,129
-72,232
-70,264
-68,214
-66,056
-63,752
-61,27
-58,598
-55,745
-52,732
-49,586
-46,337
-43,026
-39,705
-36,445
-33,311
-30,355
-27,62
-25,143
-22,972
-21,175
-19,835
-19,02
-18,774
-19,115
-20,041
-21,547
-23,612
-26,199
-29,253
-32,695
-36,462
-40,508
-44,8
-49,307
-53,988
-58,78
-63,592
-68,339
-72,95
-77,37
-81,571
-85,539
-89,259
-92,717
-95,903
-98,804
-101,395
-103,657
-105,528
-106,912
-107,809
-108,298
-108,561
-108,917
-109,62
-110,812
-112,685
-115,371
-118,719
-122,453
-126,059
-128,708
-129,828
-129,017
-125,734
-119,804
-111,586
-101,689
-91,213
-81,643
-74,064
-69,593
-69,705
-75,203
-86,173
-102,12
-121,56
-142,549
-163,29
-181,371
-193,621
-197,281
-190,013
-170,134
-137,174
-91,101
-32,205
38,185
117,631
203,287
291,919
380,179
465,155
543,907
613,547
671,561
716,007
745,447
758,909
756,209
737,561
703,437
654,821
593,376
521,194
440,79
355,224
267,17
179,13
94,086
14,952
-55,823
-116,156
-164,666
-201,002
-224,889
-236,133
-235,55
-224,74
-205,776
-181,196
-153,534
-124,797
-97,08
-72,831
-53,937
-41,353
-35,232
-34,899
-39,21
-47,118
-57,371
-68,111
-77,508
-84,382
-88,168
-88,954
-87,262
-83,579
-78,456
-72,793
-67,552
-63,341
-60,427
-58,739
-57,963
-57,822
-58,074
-58,409
-58,509
-58,193
-57,395
-56,129
-54,499
-52,595
-50,488
-48,266
-46,018
-43,798
-41,64
-39,577
-37,622
-35,784
-34,066
-32,427
-30,804
-29,147
-27,412
-25,572
-23,608
-21,489
-19,179
-16,658
-13,915
-10,943
-7,737
-4,283
-0,563
3,421
7,655
12,109
16,739
21,516
26,421
31,441
36,569
41,8
47,128
52,561
58,114
63,796
69,618
75,586
81,705
87,991
94,463
101,137
108,03
115,15
122,497
130,064
137,835
145,785
153,886
162,108
170,419
178,8
187,223
195,662
204,086
212,46
220,753
228,95
237,033
244,99
252,817
260,52
268,121
275,663
283,175
290,675
298,167
305,636
313,072
320,462
327,789
335,032
342,153
349,097
355,811
362,236
368,292
373,888
378,906
383,196
386,643
389,147
390,63
391,044
390,344
388,494
385,48
381,304
375,99
369,574
362,095
353,603
344,179
333,918
322,95
311,431
299,491
287,257
274,84
262,33
249,814
237,368
225,043
212,88
200,912
189,168
177,682
166,478
155,56
144,928
134,563
124,43
114,518
104,798
95,246
85,86
76,633
67,571
58,695
50,028
41,589
33,399
25,471
17,82
10,469
3,431
-3,277
-9,636
-15,642
-21,272
-26,506
-31,339
-35,764
-39,787
-43,422
-46,679
-49,568
-52,108
-54,315
-56,204
-57,799
-59,11
-60,154
-60,944
-61,495
-61,829
-61,972
-61,943
-61,763
-61,449
-61,019
-60,49
-59,882
-59,209
-58,482
-57,715
-56,92
-56,11
-55,3
-54,499
-53,72
-52,969
-52,253
-51,577
-50,947
-50,366
-49,837
-49,361
-48,939
-48,572
-48,262
-48,008
-47,81
-47,667
-47,577
-47,538
-47,549
-47,605
-47,705
-47,845
-48,02
-48,228
-48,465
-48,727
-49,01
-49,31
-49,623
-49,946
-50,275
-50,605
-50,935
-51,26
-51,579
-51,889
-52,188
-52,475
-52,748
-53,007
-53,25
-53,478
-53,689
-53,884
-54,062
-54,224
-54,369
-54,498
-54,611
-54,707
-54,788
-54,855
-54,906
-54,944
-54,969
-54,981
-54,982
-54,972
-54,953
-54,927
-54,894
-54,857
-54,816
-54,774
-54,732
-54,691
-54,653
-54,62
-54,592
-54,572
-54,559
-54,556
-54,563
-54,583
-54,616
-54,663
-54,727
-54,808
-54,907
-55,027
-55,167
-55,331
-55,518
-55,731
-55,97
-56,237
-56,532
-56,857
-57,212
-57,598
-58,014
-58,46
-58,936
-59,442
-59,976
-60,537
-61,125
-61,738
-62,374
-63,033
-63,713
-64,412
-65,129
-65,862
-66,608
-67,367
-68,135
-68,911
-69,693
-70,478
-71,265
-72,05
-72,832
-73,608
-74,376
-75,133
-75,877
-76,606
-77,317
-78,008
-78,678
-79,325
-79,947
-80,543
-81,112
-81,655
-82,169
-82,655
-83,112
-83,54
-83,939
-84,309
-84,65
-84,961
-85,243
-85,495
-85,719
-85,914
-86,081
-86,22
-86,331
-86,413
-86,469
-86,497
-86,498
-86,473
-86,422
-86,346
-86,246
-86,122
-85,976
-85,807
-85,617
-85,407
-85,177
-84,928
-84,66
-84,374
-84,071
-83,75
-83,413
-83,061
-82,694
-82,314
-81,922
-81,518
-81,105
-80,683
-80,254
-79,82
-79,382
-78,944
-78,505
-78,07
-77,639
-77,215
-76,8
-76,395
-76,003
-75,625
-75,262
-74,916
-74,588
-74,278
-73,987
-73,717
-73,466
-73,236
-73,026
-72,836
-72,665
-72,513
-72,378
-72,258
-72,153
-72,06
-71,975
-71,897
-71,823
-71,747
-71,668
-71,58
-71,479
-71,361
-71,219
-71,051
-70,85
-70,611
-70,329
-69,999
-69,616
-69,176
-68,672
-68,1
-67,457
-66,737
-65,938
-65,056
-64,087
-63,03
-61,882
-60,642
-59,307
-57,878
-56,354
-54,735
-53,022
-51,217
-49,322
-47,341
-45,277
-43,135
-40,921
-38,641
-36,3
-33,906
-31,466
-28,988
-26,48
-23,952
-21,414
-18,875
-16,348
-13,845
-11,381
-8,967
-6,619
-4,348
-2,17
-0,1
1,845
3,648
5,297
6,776
8,07
9,167
10,051
10,712
11,144
11,341
11,298
11,01
10,469
9,673
8,626
7,336
5,811
4,063
2,092
-0,097
-2,492
-5,082
-7,854
-10,798
-13,906
-17,167
-20,554
-24,032
-27,551
-31,071
-34,566
-38,019
-41,424
-44,763
-47,991
-51,055
-53,901
-56,475
-58,753
-60,692
-62,214
-63,318
-64,088
-64,703
-65,476
-66,682
-68,456
-70,868
-73,94
-77,506
-81,322
-84,951
-87,657
-88,767
-87,781
-84,467
-78,984
-71,826
-63,647
-55,333
-48,035
-42,922
-41,261
-43,862
-50,796
-61,64
-75,402
-90,759
-106,342
-120,428
-130,59
-134,609
-130,718
-117,405
-94,076
-60,499
-16,168
38,782
103,003
174,727
251,642
330,764
409,602
485,509
554,868
614,207
660,744
691,964
706,254
703,214
682,497
644,381
590,635
523,64
446,256
362,237
275,285
188,531
105,344
28,82
-38,809
-95,599
-140,365
-173,356
-195,342
-207,202
-210,252
-205,803
-195,331
-180,906
-164,403
-146,824
-128,923
-111,377
-94,927
-80,748
-69,49
-60,941
-54,735
-50,702
-48,673
-48,489
-49,562
-50,616
-50,805
-49,935
-48,007
-45,173
-41,584
-37,277
-32,606
-28,361
-25,048
-22,829
-21,698
-21,419
-21,77
-22,635
-23,782
-24,851
-25,596
-25,874
-25,628
-24,942
-23,88
-22,466
-20,754
-18,804
-16,659
-14,364
-11,939
-9,368
-6,659
-3,834
-0,91
2,085
5,131
8,218
11,338
14,489
17,676
20,908
24,19
27,535
30,945
34,425
37,967
41,553
45,174
48,829
52,521
56,264
60,069
63,942
67,899
71,955
76,124
80,418
84,847
89,418
94,141
99,032
104,105
109,384
114,889
120,633
126,631
132,89
139,409
146,186
153,209
160,459
167,916
175,555
183,342
191,25
199,25
207,313
215,419
223,54
231,646
239,701
247,665
255,506
263,207
270,749
278,119
285,315
292,337
299,202
305,948
312,596
319,157
325,624
331,973
338,18
344,224
350,085
355,746
361,177
366,328
371,154
375,609
379,634
383,168
386,116
388,349
389,764
390,28
389,841
388,426
386,015
382,587
378,132
372,641
366,122
358,604
350,105
340,635
330,217
318,883
306,707
293,82
280,335
266,351
251,953
237,201
222,163
206,918
191,548
176,127
160,729
145,427
130,316
115,514
101,147
87,335
74,152
61,627
49,782
38,648
28,255
18,636
9,812
1,776
-5,482
-11,971
-17,706
-22,72
-27,069
-30,847
-34,164
-37,13
-39,819
-42,284
-44,566
-46,706
-48,746
-50,717
-52,64
-54,518
-56,356
-58,162
-59,946
-61,705
-63,419
-65,049
-66,542
-67,853
-68,957
-69,839
-70,495
-70,921
-71,12
-71,1
-70,885
-70,498
-69,962
-69,293
-68,506
-67,619
-66,656
-65,646
-64,624
-63,616
-62,64
-61,713
-60,844
-60,044
-59,318
-58,667
-58,085
-57,568
-57,113
-56,72
-56,388
-56,118
-55,905
-55,747
-55,638
-55,578
-55,562
-55,59
-55,658
-55,764
-55,905
-56,08
-56,289
-56,531
-56,803
-57,104
-57,432
-57,784
-58,159
-58,556
-58,973
-59,409
-59,862
-60,334
-60,823
-61,33
-61,855
-62,398
-62,96
-63,54
-64,137
-64,753
-65,386
-66,034
-66,698
-67,376
-68,066
-68,768
-69,478
-70,197
-70,922
-71,653
-72,387
-73,124
-73,862
-74,6
-75,337
-76,07
-76,798
-77,519
-78,233
-78,937
-79,629
-80,307
-80,971
-81,618
-82,246
-82,854
-83,441
-84,005
-84,546
-85,063
-85,557
-86,028
-86,476
-86,904
-87,313
-87,705
-88,083
-88,448
-88,804
-89,153
-89,498
-89,842
-90,189
-90,54
-90,899
-91,27
-91,655
-92,058
-92,482
-92,93
-93,404
-93,909
-94,446
-95,019
-95,629
-96,28
-96,973
-97,711
-98,494
-99,324
-100,201
-101,125
-102,096
-103,112
-104,173
-105,274
-106,415
-107,592
-108,802
-110,041
-111,305
-112,59
-113,892
-115,207
-116,531
-117,858
-119,184
-120,505
-121,816
-123,113
-124,39
-125,644
-126,871
-128,066
-129,227
-130,349
-131,43
-132,467
-133,456
-134,397
-135,286
-136,124
-136,908
-137,639
-138,318
-138,945
-139,522
-140,05
-140,532
-140,971
-141,37
-141,731
-142,058
-142,355
-142,624
-142,87
-143,096
-143,306
-143,502
-143,69
-143,871
-144,049
-144,226
-144,405
-144,587
-144,775
-144,969
-145,17
-145,378
-145,593
-145,814
-146,04
-146,268
-146,497
-146,723
-146,943
-147,152
-147,347
-147,522
-147,671
-147,788
-147,869
-147,906
-147,894
-147,826
-147,697
-147,499
-147,228
-146,878
-146,443
-145,919
-145,3
-144,583
-143,765
-142,842
-141,813
-140,675
-139,43
-138,076
-136,615
-135,049
-133,383
-131,619
-129,762
-127,82
-125,799
-123,707
-121,554
-119,35
-117,105
-114,832
-112,544
-110,254
-107,974
-105,722
-103,511
-101,36
-99,285
-97,304
-95,434
-93,692
-92,098
-90,667
-89,416
-88,358
-87,507
-86,877
-86,48
-86,329
-86,435
-86,807
-87,454
-88,381
-89,592
-91,088
-92,866
-94,92
-97,243
-99,829
-102,675
-105,781
-109,141
-112,747
-116,591
-120,655
-124,921
-129,363
-133,944
-138,624
-143,363
-148,118
-152,855
-157,536
-162,12
-166,559
-170,799
-174,775
-178,433
-181,717
-184,576
-186,986
-188,932
-190,422
-191,491
-192,172
-192,512
-192,575
-192,436
-192,178
-191,906
-191,711
-191,715
-192,104
-193,012
-194,514
-196,576
-198,958
-201,36
-203,512
-205,052
-205,566
-204,776
-202,52
-198,977
-194,894
-191,083
-188,289
-187,269
-188,509
-192,19
-198,217
-205,688
-212,67
-216,925
-215,988
-207,342
-189,034
-159,356
-116,961
-61,742
5,086
81,406
164,009
249,142
333,114
411,625
480,119
534,735
572,246
590,411
588,489
566,411
524,734
465,457
391,63
307,022
216,159
123,351
32,201
-53,552
-130,482
-196,031
-248,351
-286,996
-312,757
-326,626
-329,738
-323,849
-311,059
-293,841
-274,91
-255,993
-238,209
-222,712
-210,344
-201,723
-197,069
-195,737
-196,53
-198,622
-201,225
-203,411
-204,56
-203,981
-201,207
-196,429
-190,158
-182,904
-175,3
-168,028
-161,496
-156,089
-152,048
-149,298
-147,687
-146,995
-146,9
-147,064
-147,263
-147,359
-147,282
-147,049
-146,663
-146,12
-145,453
-144,72
-143,962
-143,191
-142,404
-141,577
-140,69
-139,745
-138,731
-137,619
-136,386
-135,005
-133,45
-131,713
-129,783
-127,652
-125,313
-122,758
-119,976
-116,971
-113,746
-110,3
-106,645
-102,794
-98,768
-94,606
-90,334
-85,97
-81,526
-77,006
-72,409
-67,736
-62,98
-58,126
-53,165
-48,085
-42,876
-37,53
-32,036
-26,376
-20,535
-14,489
-8,22
-1,718
5,028
12,02
19,25
26,71
34,381
42,238
50,257
58,406
66,65
74,956
83,293
91,63
99,944
108,205
116,38
124,434
132,329
140,034
147,535
154,818
161,87
168,696
175,301
181,711
187,967
194,094
200,101
205,989
211,743
217,355
222,825
228,145
233,314
238,316
243,123
247,704
252,022
256,014
259,6
262,674
265,104
266,79
267,658
267,644
266,703
264,792
261,861
257,877
252,809
246,631
239,325
230,891
221,344
210,749
199,198
186,815
173,757
160,158
146,137
131,818
117,316
102,744
88,224
73,875
59,814
46,186
33,13
20,762
9,179
-1,567
-11,454
-20,481
-28,672
-36,051
-42,643
-48,486
-53,615
-58,067
-61,888
-65,136
-67,879
-70,221
-72,267
-74,099
-75,787
-77,373
-78,886
-80,349
-81,769
-83,144
-84,468
-85,727
-86,915
-88,028
-89,058
-89,984
-90,777
-91,389
-91,775
-91,908
-91,769
-91,352
-90,659
-89,69
-88,458
-86,987
-85,304
-83,432
-81,396
-79,211
-76,898
-74,484
-71,998
-69,477
-66,95
-64,438
-61,96
-59,533
-57,167
-54,873
-52,654
-50,511
-48,439
-46,44
-44,515
-42,664
-40,89
-39,189
-37,558
-35,995
-34,497
-33,062
-31,687
-30,368
-29,103
-27,888
-26,722
-25,604
-24,529
-23,496
-22,5
-21,535
-20,599
-19,687
-18,793
-17,914
-17,045
-16,182
-15,323
-14,466
-13,608
-12,749
-11,886
-11,019
-10,149
-9,274
-8,396
-7,514
-6,63
-5,743
-4,855
-3,967
-3,081
-2,196
-1,316
-0,442
0,425
1,282
2,128
2,959
3,774
4,57
5,345
6,095
6,819
7,513
8,175
8,802
9,392
9,942
10,451
10,918
11,342
11,723
12,06
12,353
12,604
12,812
12,98
13,107
13,195
13,245
13,259
13,238
13,184
13,099
12,986
12,845
12,68
12,493
12,286
12,062
11,823
11,574
11,317
11,055
10,793
10,534
10,283
10,042
9,817
9,61
9,426
9,267
9,137
9,038
8,973
8,945
8,956
9,007
9,101
9,241
9,427
9,661
9,946
10,282
10,67
11,114
11,612
12,167
12,779
13,449
14,178
14,966
15,813
16,719
17,682
18,701
19,774
20,899
22,073
23,294
24,558
25,864
27,209
28,589
30,003
31,449
32,924
34,425
35,952
37,5
39,069
40,655
42,256
43,871
45,498
47,133
48,775
50,423
52,073
53,725
55,376
57,025
58,669
60,308
61,942
63,571
65,196
66,819
68,442
70,07
71,706
73,355
75,02
76,706
78,415
80,15
81,916
83,712
85,541
87,407
89,313
91,264
93,265
95,319
97,434
99,613
101,864
104,189
106,593
109,076
111,641
114,291
117,031
119,87
122,81
125,851
128,993
132,232
135,562
138,973
142,446
145,955
149,481
153,011
156,537
160,059
163,575
167,082
170,579
174,065
177,54
181,011
184,474
187,924
191,363
194,799
198,255
201,769
205,36
209,027
212,762
216,541
220,337
224,122
227,852
231,471
234,926
238,172
241,171
243,903
246,333
248,416
250,096
251,303
251,993
252,149
251,761
250,827
249,354
247,357
244,882
242,002
238,781
235,277
231,537
227,607
223,554
219,462
215,424
211,536
207,87
204,49
201,463
198,863
196,766
195,228
194,275
193,898
194,081
194,813
196,078
197,839
200,031
202,563
205,316
208,174
211,021
213,726
216,173
218,187
219,532
220,072
219,767
218,735
217,308
215,798
214,425
213,501
213,411
214,399
216,568
219,537
222,397
224,365
224,912
223,766
220,963
216,722
211,572
206,96
205,158
208,484
219,098
238,474
267,421
306,643
356,391
415,832
483,134
555,844
631,068
706,257
779,151
847,01
906,972
956,477
993,378
1016,055
1023,568
1015,19
990,317
949,304
893,421
824,706
746,062
660,912
572,645
484,682
400,774
324,261
257,923
203,889
162,886
134,649
118,578
113,64
118,144
130,034
146,828
165,853
185,333
203,977
220,503
233,984
243,753
249,586
252,062
252,251
250,887
248,689
246,539
245,05
244,868
246,389
249,375
253,283
257,619
261,78
265,108
267,224
267,782
266,581
263,755
259,542
254,243
248,285
242,11
236,009
230,21
224,879
220,096
215,961
212,532
209,791
207,695
206,202
205,284
204,927
205,114
205,795
206,91
208,383
210,141
212,128
214,281
216,532
218,799
220,995
223,059
224,954
226,653
228,142
229,411
230,443
231,229
231,763
232,021
231,999
231,706
231,154
230,377
229,42
228,335
227,193
226,071
225,027
224,115
223,38
222,846
222,556
222,556
222,898
223,655
224,879
226,597
228,831
231,582
234,829
238,544
242,672
247,131
251,856
256,789
261,884
267,109
272,421
277,763
283,075
288,282
293,322
298,146
302,707
306,965
310,897
314,487
317,74
320,687
323,342
325,705
327,771
329,52
330,938
332,016
332,745
333,115
333,114
332,729
331,946
330,759
329,153
327,104
324,583
321,549
317,967
313,817
309,087
303,772
297,873
291,394
284,346
276,753
268,643
260,043
250,975
241,457
231,507
221,149
210,417
199,343
187,959
176,288
164,345
152,143
139,691
126,99
114,027
100,783
87,228
73,346
59,141
44,622
29,81
14,728
-0,606
-16,159
-31,884
-47,727
-63,621
-79,491
-95,26
-110,825
-126,067
-140,866
-155,092
-168,637
-181,427
-193,394
-204,485
-214,661
-223,886
-232,148
-239,461
-245,844
-251,331
-255,972
-259,823
-262,971
-265,531
-267,611
-269,322
-270,759
-271,991
-273,083
-274,093
-275,065
-276,036
-277,029
-278,051
-279,109
-280,207
-281,339
-282,492
-283,635
-284,718
-285,701
-286,551
-287,243
-287,767
-288,116
-288,283
-288,275
-288,104
-287,784
-287,336
-286,775
-286,114
-285,369
-284,56
-283,712
-282,856
-282,015
-281,208
-280,449
-279,747
-279,11
-278,544
-278,051
-277,626
-277,268
-276,975
-276,747
-276,586
-276,493
-276,467
-276,509
-276,616
-276,79
-277,032
-277,344
-277,726
-278,181
-278,711
-279,319
-280,009
-280,784
-281,646
-282,597
-283,637
-284,766
-285,987
-287,299
-288,702
-290,196
-291,781
-293,458
-295,225
-297,083
-299,031
-301,068
-303,193
-305,405
-307,702
-310,082
-312,541
-315,077
-317,687
-320,365
-323,108
-325,912
-328,77
-331,679
-334,632
-337,625
-340,653
-343,71
-346,792
-349,893
-353,009
-356,137
-359,27
-362,407
-365,543
-368,675
-371,8
-374,917
-378,022
-381,114
-384,191
-387,25
-390,292
-393,314
-396,314
-399,292
-402,248
-405,178
-408,085
-410,966
-413,822
-416,653
-419,458
-422,237
-424,991
-427,719
-430,42
-433,095
-435,742
-438,36
-440,949
-443,507
-446,033
-448,523
-450,977
-453,39
-455,759
-458,081
-460,35
-462,563
-464,713
-466,796
-468,806
-470,737
-472,583
-474,338
-475,998
-477,555
-479,005
-480,343
-481,562
-482,657
-483,624
-484,459
-485,155
-485,711
-486,121
-486,383
-486,495
-486,453
-486,256
-485,902
-485,391
-484,72
-483,891
-482,903
-481,758
-480,456
-479
-477,393
-475,638
-473,739
-471,7
-469,527
-467,225
-464,799
-462,255
-459,599
-456,836
-453,973
-451,016
-447,971
-444,843
-441,639
-438,365
-435,025
-431,624
-428,168
-424,66
-421,105
-417,506
-413,867
-410,191
-406,482
-402,742
-398,974
-395,181
-391,364
-387,527
-383,67
-379,795
-375,904
-371,996
-368,072
-364,132
-360,177
-356,205
-352,217
-348,212
-344,191
-340,151
-336,094
-332,018
-327,922
-323,808
-319,674
-315,522
-311,351
-307,163
-302,96
-298,742
-294,514
-290,276
-286,033
-281,787
-277,542
-273,3
-269,065
-264,841
-260,632
-256,44
-252,271
-248,128
-244,016
-239,938
-235,9
-231,904
-227,955
-224,058
-220,215
-216,432
-212,711
-209,056
-205,472
-201,962
-198,528
-195,173
-191,901
-188,714
-185,611
-182,595
-179,666
-176,822
-174,064
-171,388
-168,794
-166,279
-163,84
-161,473
-159,175
-156,942
-154,77
-152,652
-150,584
-148,561
-146,577
-144,627
-142,703
-140,802
-138,916
-137,042
-135,172
-133,302
-131,426
-129,538
-127,633
-125,705
-123,751
-121,764
-119,741
-117,678
-115,573
-113,424
-111,229
-108,987
-106,699
-104,365
-101,987
-99,567
-97,107
-94,61
-92,08
-89,521
-86,942
-84,348
-81,748
-79,151
-76,569
-74,012
-71,494
-69,024
-66,614
-64,277
-62,025
-59,87
-57,826
-55,907
-54,125
-52,496
-51,036
-49,761
-48,685
-47,818
-47,17
-46,744
-46,551
-46,601
-46,904
-47,47
-48,31
-49,439
-50,874
-52,637
-54,737
-57,176
-59,951
-63,051
-66,471
-70,203
-74,235
-78,549
-83,123
-87,925
-92,92
-98,064
-103,296
-108,537
-113,696
-118,668
-123,365
-127,716
-131,655
-135,121
-138,056
-140,413
-142,165
-143,304
-143,842
-143,799
-143,215
-142,151
-140,693
-138,956
-137,091
-135,273
-133,68
-132,487
-131,85
-131,946
-132,984
-135,112
-138,375
-142,665
-147,65
-152,909
-158,021
-162,484
-165,735
-167,354
-167,128
-165,245
-162,51
-159,961
-158,568
-159,24
-162,628
-168,862
-177,499
-187,178
-195,348
-198,855
-194,412
-178,842
-149,598
-105,053
-44,512
31,278
119,834
217,493
319,616
421,034
516,94
602,981
675,152
730,477
767,172
784,345
782,574
763,358
727,997
678,121
615,949
543,664
463,859
379,524
292,786
205,715
121,416
42,891
-27,143
-85,965
-132,167
-165,333
-184,719
-190,527
-184,625
-169,373
-147,826
-123,638
-99,396
-77,215
-59,605
-47,984
-42,508
-42,854
-47,723
-55,18
-63,889
-72,464
-79,114
-82,87
-83,392
-80,603
-75,118
-67,83
-59,355
-50,496
-42,263
-35,201
-29,563
-25,443
-22,573
-20,646
-19,448
-18,654
-17,884
-16,932
-15,692
-14,135
-12,357
-10,428
-8,374
-6,252
-4,112
-1,974
0,134
2,206
4,257
6,283
8,269
10,214
12,113
13,98
15,856
17,779
19,781
21,895
24,143
26,545
29,117
31,865
34,794
37,905
41,196
44,668
48,326
52,163
56,173
60,338
64,627
69,021
73,507
78,079
82,739
87,493
92,347
97,316
102,418
107,672
113,099
118,717
124,545
130,601
136,902
143,463
150,303
157,428
164,837
172,52
180,454
188,617
196,989
205,546
214,269
223,134
232,113
241,176
250,289
259,42
268,546
277,648
286,707
295,716
304,673
313,594
322,51
331,451
340,424
349,428
358,443
367,452
376,44
385,393
394,296
403,129
411,856
420,438
428,831
436,973
444,785
452,159
458,961
465,056
470,342
474,738
478,184
480,626
482,007
482,274
481,384
479,304
476,016
471,505
465,771
458,841
450,773
441,671
431,67
420,921
409,561
397,711
385,482
372,992
360,364
347,723
335,201
322,911
310,966
299,485
288,568
278,297
268,722
259,859
251,694
244,194
237,323
231,051
225,347
220,166
215,455
211,152
207,181
203,481
199,991
196,638
193,368
190,133
186,897
183,649
180,395
177,147
173,922
170,742
167,623
164,593
161,685
158,938
156,401
154,109
152,09
150,377
148,989
147,94
147,24
146,887
146,865
147,16
147,755
148,628
149,761
151,129
152,704
154,454
156,344
158,343
160,428
162,575
164,763
166,975
169,194
171,409
173,614
175,799
177,955
180,074
182,146
184,163
186,118
188,006
189,822
191,561
193,217
194,783
196,254
197,626
198,892
200,048
201,088
202,007
202,803
203,475
204,021
204,441
204,735
204,904
204,949
204,872
204,673
204,354
203,917
203,363
202,695
201,914
201,022
200,024
198,92
197,714
196,41
195,009
193,516
191,935
190,268
188,519
186,693
184,793
182,823
180,786
178,686
176,526
174,309
172,038
169,716
167,345
164,927
162,466
159,963
157,42
154,841
152,226
149,578
146,9
144,194
141,462
138,708
135,933
133,141
130,335
127,517
124,691
121,858
119,022
116,185
113,35
110,52
107,696
104,882
102,08
99,292
96,522
93,773
91,047
88,347
85,676
83,036
80,432
77,865
75,338
72,855
70,416
68,024
65,683
63,393
61,156
58,973
56,846
54,776
52,762
50,805
48,905
47,062
45,274
43,542
41,864
40,239
38,667
37,146
35,674
34,249
32,87
31,534
30,24
28,985
27,767
26,583
25,431
24,309
23,213
22,143
21,094
20,066
19,055
18,06
17,079
16,109
15,149
14,198
13,256
12,32
11,39
10,466
9,547
8,634
7,726
6,824
5,926
5,034
4,149
3,271
2,401
1,541
0,689
-0,152
-0,984
-1,803
-2,611
-3,406
-4,191
-4,965
-5,728
-6,476
-7,207
-7,922
-8,621
-9,307
-9,979
-10,634
-11,272
-11,892
-12,498
-13,091
-13,674
-14,243
-14,794
-15,33
-15,854
-16,375
-16,905
-17,444
-17,996
-18,56
-19,135
-19,738
-20,379
-21,066
-21,809
-22,593
-23,406
-24,258
-25,155
-26,11
-27,142
-28,192
-29,198
-30,205
-31,255
-32,427
-33,816
-35,315
-36,783
-38,239
-39,731
-41,187
-42,497
-43,328
-43,306
-42,527
-41,293
-39,858
-38,392
-36,994
-35,871
-35,604
-36,869
-39,837
-44,176
-49,234
-54,521
-59,856
-64,964
-69,279
-72,075
-72,84
-71,743
-69,568
-66,914
-64,034
-61,171
-58,582
-56,721
-56,142
-56,851
-58,309
-60,102
-62
-63,868
-65,737
-67,486
-68,822
-69,704
-70,334
-70,871
-71,451
-72,124
-72,801
-73,465
-74,173
-74,936
-75,734
-76,549
-77,341
-78,105
-78,879
-79,679
-80,515
-81,386
-82,277
-83,181
-84,096
-85,013
-85,927
-86,83
-87,717
-88,595
-89,468
-90,339
-91,206
-92,054
-92,867
-93,638
-94,373
-95,089
-95,814
-96,554
-97,294
-98,016
-98,711
-99,39
-100,071
-100,718
-101,238
-101,584
-101,828
-102,186
-102,875
-103,953
-105,251
-106,523
-107,719
-108,839
-109,617
-109,448
-107,629
-103,758
-98,167
-91,723
-84,929
-77,994
-71,426
-66,1
-63,153
-63,508
-66,87
-71,889
-77,654
-83,723
-89,543
-94,454
-97,416
-97,314
-94,27
-89,56
-84,12
-78,489
-73,085
-68,113
-64,134
-61,983
-61,712
-62,63
-64,209
-66,086
-68,096
-70,371
-72,833
-75,173
-77,359
-79,599
-82,066
-84,924
-88,219
-91,827
-95,692
-99,839
-104,254
-108,904
-113,748
-118,708
-123,718
-128,734
-133,687
-138,489
-143,057
-147,31
-151,17
-154,572
-157,464
-159,804
-161,585
-162,819
-163,519
-163,704
-163,404
-162,661
-161,569
-160,265
-158,909
-157,695
-156,81
-156,402
-156,66
-157,806
-159,972
-163,211
-167,446
-172,426
-177,933
-183,816
-189,832
-195,644
-200,989
-205,657
-209,65
-213,268
-216,701
-219,982
-223,128
-226,139
-228,879
-231,048
-232,018
-230,701
-225,991
-216,809
-202,07
-180,661
-151,525
-113,86
-67,185
-11,541
52,61
124,318
202,124
283,904
366,909
448,198
524,501
592,416
648,727
690,639
715,873
723,053
711,829
682,325
635,495
573,284
498,227
413,317
322,08
227,986
134,159
44,068
-38,949
-112,237
-173,614
-221,64
-256,071
-277,163
-285,365
-282,164
-269,732
-250,471
-227,151
-202,299
-177,541
-154,364
-134,362
-118,486
-107,224
-100,488
-97,416
-97,113
-99,129
-102,872
-107,454
-112,023
-115,645
-117,883
-118,981
-119,246
-118,844
-117,989
-116,928
-116,039
-115,929
-116,877
-118,737
-121,266
-124,136
-127,062
-129,9
-132,439
-134,341
-135,391
-135,497
-134,642
-132,934
-130,481
-127,333
-123,57
-119,296
-114,618
-109,68
-104,627
-99,558
-94,557
-89,665
-84,901
-80,302
-75,903
-71,725
-67,775
-64,033
-60,469
-57,069
-53,825
-50,717
-47,711
-44,741
-41,734
-38,636
-35,418
-32,072
-28,595
-24,973
-21,189
-17,236
-13,113
-8,827
-4,379
0,243
5,058
10,074
15,29
20,697
26,282
32,042
37,983
44,114
50,445
56,977
63,714
70,661
77,824
85,199
92,774
100,528
108,435
116,469
124,6
132,793
141,017
149,236
157,418
165,534
173,548
181,427
189,139
196,649
203,93
210,967
217,746
224,259
230,511
236,507
242,262
247,799
253,126
258,242
263,142
267,809
272,238
276,417
280,325
283,941
287,238
290,178
292,728
294,841
296,445
297,473
297,85
297,494
296,358
294,403
291,595
287,914
283,337
277,845
271,442
264,129
255,905
246,782
236,771
225,909
214,284
201,975
189,075
175,682
161,872
147,726
133,339
118,795
104,186
89,61
75,152
60,918
47,034
33,61
20,762
8,573
-2,924
-13,695
-23,709
-32,952
-41,402
-49,055
-55,933
-62,053
-67,436
-72,124
-76,161
-79,618
-82,599
-85,198
-87,503
-89,586
-91,484
-93,239
-94,889
-96,462
-97,979
-99,452
-100,875
-102,25
-103,58
-104,857
-106,063
-107,165
-108,111
-108,859
-109,378
-109,647
-109,657
-109,406
-108,889
-108,115
-107,101
-105,863
-104,427
-102,811
-101,03
-99,105
-97,061
-94,928
-92,743
-90,535
-88,325
-86,134
-83,977
-81,866
-79,811
-77,819
-75,888
-74,02
-72,215
-70,475
-68,805
-67,206
-65,678
-64,219
-62,828
-61,503
-60,245
-59,052
-57,924
-56,86
-55,859
-54,922
-54,05
-53,243
-52,499
-51,816
-51,192
-50,624
-50,111
-49,649
-49,237
-48,87
-48,548
-48,268
-48,028
-47,827
-47,662
-47,531
-47,434
-47,368
-47,332
-47,323
-47,342
-47,386
-47,455
-47,546
-47,66
-47,794
-47,948
-48,119
-48,308
-48,513
-48,733
-48,967
-49,214
-49,474
-49,745
-50,028
-50,322
-50,627
-50,942
-51,268
-51,605
-51,951
-52,308
-52,675
-53,051
-53,437
-53,832
-54,236
-54,649
-55,07
-55,499
-55,936
-56,379
-56,829
-57,284
-57,744
-58,207
-58,674
-59,143
-59,613
-60,085
-60,557
-61,029
-61,5
-61,97
-62,439
-62,905
-63,368
-63,828
-64,282
-64,73
-65,172
-65,605
-66,03
-66,445
-66,848
-67,24
-67,618
-67,982
-68,33
-68,661
-68,975
-69,271
-69,548
-69,806
-70,044
-70,262
-70,462
-70,642
-70,803
-70,945
-71,068
-71,172
-71,257
-71,323
-71,37
-71,398
-71,407
-71,398
-71,371
-71,327
-71,265
-71,188
-71,094
-70,986
-70,863
-70,727
-70,579
-70,42
-70,251
-70,073
-69,888
-69,697
-69,501
-69,301
-69,097
-68,891
-68,683
-68,472
-68,26
-68,045
-67,829
-67,611
-67,392
-67,172
-66,951
-66,729
-66,507
-66,285
-66,062
-65,839
-65,616
-65,393
-65,169
-64,944
-64,718
-64,491
-64,261
-64,029
-63,794
-63,553
-63,308
-63,055
-62,795
-62,525
-62,245
-61,954
-61,652
-61,337
-61,01
-60,67
-60,317
-59,95
-59,571
-59,178
-58,771
-58,351
-57,917
-57,47
-57,008
-56,534
-56,046
-55,545
-55,032
-54,507
-53,971
-53,424
-52,868
-52,303
-51,73
-51,15
-50,566
-49,979
-49,391
-48,805
-48,222
-47,644
-47,074
-46,514
-45,965
-45,429
-44,908
-44,403
-43,914
-43,445
-42,994
-42,565
-42,156
-41,77
-41,406
-41,065
-40,746
-40,45
-40,176
-39,924
-39,692
-39,48
-39,287
-39,112
-38,954
-38,81
-38,679
-38,558
-38,443
-38,332
-38,221
-38,105
-37,98
-37,843
-37,689
-37,514
-37,313
-37,082
-36,818
-36,517
-36,173
-35,784
-35,344
-34,852
-34,302
-33,693
-33,022
-32,287
-31,486
-30,618
-29,683
-28,678
-27,604
-26,461
-25,248
-23,964
-22,61
-21,188
-19,7
-18,149
-16,538
-14,874
-13,162
-11,411
-9,628
-7,821
-6
-4,173
-2,347
-0,533
1,262
3,026
4,749
6,42
8,028
9,556
10,992
12,322
13,534
14,62
15,572
16,377
17,023
17,495
17,777
17,851
17,697
17,287
16,598
15,609
14,298
12,663
10,705
8,425
5,829
2,916
-0,309
-3,833
-7,628
-11,671
-15,93
-20,367
-24,934
-29,554
-34,141
-38,613
-42,89
-46,914
-50,644
-54,039
-57,056
-59,662
-61,823
-63,526
-64,784
-65,6
-65,986
-65,98
-65,634
-65,051
-64,368
-63,707
-63,194
-62,956
-63,1
-63,748
-65,029
-67,027
-69,844
-73,612
-78,365
-84,082
-90,65
-97,741
-104,998
-112,098
-118,588
-123,954
-127,845
-129,977
-130,356
-129,565
-128,172
-126,57
-125,258
-124,514
-124,317
-124,665
-124,972
-123,552
-118,575
-108,254
-90,6
-64,262
-28,271
18,664
77,046
145,862
223,533
307,7
395,115
482,972
568,204
646,512
713,764
766,635
802,061
818,155
814,267
789,56
744,186
680,288
600,899
509,867
411,946
311,439
212,196
118,828
35,435
-35,173
-91,076
-131,913
-158,649
-172,295
-173,99
-165,968
-150,891
-131,502
-110,478
-89,395
-69,138
-50,791
-35,634
-24,526
-17,652
-14,482
-14,124
-16,109
-20,139
-25,639
-31,55
-36,585
-39,981
-41,612
-41,704
-40,517
-38,253
-35,187
-31,942
-29,381
-28,01
-27,964
-29,141
-31,251
-34,043
-37,29
-40,613
-43,574
-45,897
-47,441
-48,175
-48,155
-47,409
-45,953
-43,847
-41,173
-38,006
-34,415
-30,454
-26,182
-21,681
-17,047
-12,382
-7,76
-3,224
1,199
5,497
9,66
13,678
17,551
21,281
24,873
28,331
31,661
34,872
37,979
40,998
43,954
46,879
49,796
52,713
55,62
58,489
61,296
64,035
66,712
69,344
71,948
74,552
77,19
79,911
82,777
85,843
89,151
92,729
96,607
100,822
105,432
110,51
116,113
122,273
128,998
136,279
144,103
152,438
161,233
170,405
179,847
189,465
199,183
208,937
218,67
228,309
237,769
246,959
255,803
264,243
272,247
279,789
286,848
293,428
299,547
305,251
310,612
315,678
320,48
325,036
329,354
333,45
337,346
341,056
344,577
347,893
350,963
353,736
356,159
358,149
359,628
360,503
360,658
360,003
358,463
355,973
352,482
347,938
342,281
335,471
327,495
318,362
308,117
296,828
284,573
271,467
257,62
243,151
228,207
212,924
197,429
181,854
166,331
150,999
136,019
121,545
107,695
94,567
82,22
70,689
59,998
50,14
41,104
32,866
25,382
18,609
12,509
7,03
2,108
-2,336
-6,414
-10,232
-13,873
-17,403
-20,866
-24,291
-27,704
-31,113
-34,514
-37,896
-41,245
-44,547
-47,797
-50,979
-54,068
-57,028
-59,805
-62,351
-64,635
-66,635
-68,34
-69,747
-70,854
-71,671
-72,218
-72,52
-72,599
-72,474
-72,161
-71,679
-71,052
-70,31
-69,487
-68,61
-67,702
-66,78
-65,861
-64,957
-64,077
-63,228
-62,408
-61,618
-60,859
-60,132
-59,443
-58,792
-58,18
-57,606
-57,07
-56,57
-56,108
-55,685
-55,299
-54,951
-54,641
-54,371
-54,142
-53,955
-53,809
-53,703
-53,636
-53,605
-53,609
-53,646
-53,713
-53,809
-53,931
-54,079
-54,252
-54,448
-54,668
-54,91
-55,175
-55,461
-55,77
-56,101
-56,455
-56,832
-57,233
-57,658
-58,107
-58,581
-59,08
-59,604
-60,153
-60,727
-61,325
-61,948
-62,595
-63,267
-63,963
-64,683
-65,427
-66,196
-66,987
-67,802
-68,639
-69,498
-70,376
-71,273
-72,186
-73,113
-74,052
-74,999
-75,953
-76,909
-77,866
-78,818
-79,762
-80,696
-81,615
-82,515
-83,393
-84,246
-85,07
-85,863
-86,622
-87,344
-88,027
-88,668
-89,265
-89,817
-90,321
-90,775
-91,179
-91,531
-91,83
-92,076
-92,268
-92,408
-92,496
-92,534
-92,522
-92,463
-92,359
-92,213
-92,028
-91,806
-91,552
-91,268
-90,959
-90,63
-90,283
-89,923
-89,554
-89,18
-88,804
-88,43
-88,061
-87,701
-87,352
-87,017
-86,7
-86,402
-86,127
-85,877
-85,654
-85,459
-85,295
-85,162
-85,06
-84,991
-84,954
-84,948
-84,973
-85,028
-85,111
-85,22
-85,353
-85,509
-85,684
-85,876
-86,081
-86,298
-86,522
-86,75
-86,98
-87,21
-87,436
-87,656
-87,868
-88,07
-88,26
-88,437
-88,598
-88,742
-88,868
-88,974
-89,059
-89,123
-89,166
-89,186
-89,186
-89,164
-89,122
-89,062
-88,984
-88,89
-88,783
-88,663
-88,535
-88,4
-88,262
-88,123
-87,987
-87,857
-87,737
-87,629
-87,537
-87,463
-87,411
-87,383
-87,381
-87,408
-87,464
-87,553
-87,675
-87,833
-88,026
-88,255
-88,522
-88,826
-89,167
-89,544
-89,957
-90,404
-90,883
-91,392
-91,929
-92,491
-93,074
-93,677
-94,294
-94,922
-95,557
-96,194
-96,829
-97,455
-98,07
-98,666
-99,24
-99,785
-100,295
-100,767
-101,194
-101,572
-101,895
-102,16
-102,36
-102,493
-102,555
-102,542
-102,451
-102,278
-102,022
-101,679
-101,249
-100,731
-100,125
-99,429
-98,644
-97,772
-96,815
-95,773
-94,648
-93,445
-92,164
-90,81
-89,387
-87,898
-86,348
-84,742
-83,086
-81,387
-79,653
-77,89
-76,108
-74,317
-72,529
-70,753
-68,997
-67,27
-65,584
-63,949
-62,374
-60,869
-59,442
-58,103
-56,865
-55,744
-54,752
-53,9
-53,193
-52,634
-52,23
-51,993
-51,934
-52,058
-52,374
-52,893
-53,633
-54,624
-55,889
-57,437
-59,261
-61,345
-63,678
-66,257
-69,078
-72,131
-75,392
-78,832
-82,426
-86,156
-89,995
-93,887
-97,752
-101,481
-104,969
-108,15
-110,987
-113,464
-115,568
-117,259
-118,49
-119,232
-119,487
-119,281
-118,655
-117,614
-116,139
-114,299
-112,303
-110,499
-109,251
-108,762
-109,023
-109,963
-111,672
-114,273
-117,679
-121,468
-125,001
-127,78
-129,776
-131,301
-132,371
-132,768
-132,466
-131,749
-131,401
-132,454
-135,333
-139,824
-145,937
-153,674
-162,735
-172,694
-182,252
-189,092
-191,18
-186,868
-174,236
-151,881
-118,766
-73,616
-16,264
51,839
128,825
212,196
298,583
385,049
468,416
544,404
609,17
659,826
693,792
709,625
707,057
685,627
645,769
589,654
520,017
440,252
354,556
266,658
179,881
98,118
24,616
-38,401
-89,128
-127,169
-153,42
-168,822
-174,72
-173,206
-166,099
-155,355
-143,333
-131,385
-120,199
-110,598
-102,833
-96,836
-92,949
-90,971
-90,071
-89,876
-89,97
-89,637
-88,726
-87,133
-84,353
-80,333
-75,373
-69,625
-63,574
-57,926
-52,932
-48,77
-45,71
-43,705
-42,636
-42,412
-42,688
-43,034
-43,216
-43,058
-42,466
-41,509
-40,221
-38,615
-36,76
-34,708
-32,504
-30,209
-27,857
-25,464
-23,062
-20,696
-18,428
-16,352
-14,539
-13,017
-11,768
-10,728
-9,829
-9,015
-8,228
-7,411
-6,511
-5,471
-4,245
-2,811
-1,142
0,798
3,062
5,727
8,862
12,497
16,63
21,23
26,253
31,662
37,408
43,424
49,657
56,063
62,613
69,305
76,133
83,078
90,11
97,193
104,283
111,359
118,421
125,469
132,518
139,583
146,688
153,871
161,16
168,559
176,055
183,622
191,229
198,86
206,5
214,132
221,745
229,32
236,828
244,25
251,563
258,742
265,766
272,612
279,271
285,756
292,103
298,346
304,516
310,632
316,699
322,72
328,69
334,606
340,461
346,242
351,932
357,501
362,911
368,1
372,989
377,47
381,407
384,662
387,109
388,637
389,165
388,624
386,959
384,117
380,056
374,735
368,112
360,167
350,897
340,323
328,505
315,545
301,58
286,775
271,3
255,306
238,929
222,294
205,514
188,713
172,007
155,516
139,391
123,776
108,81
94,636
81,353
69,022
57,674
47,295
37,853
29,329
21,695
14,926
9,007
3,91
-0,389
-3,914
-6,74
-8,959
-10,681
-12,048
-13,178
-14,163
-15,099
-16,035
-17,001
-18,034
-19,146
-20,347
-21,666
-23,125
-24,758
-26,611
-28,689
-30,971
-33,419
-35,956
-38,512
-41,023
-43,407
-45,607
-47,593
-49,336
-50,83
-52,084
-53,084
-53,819
-54,271
-54,404
-54,202
-53,67
-52,815
-51,674
-50,288
-48,701
-46,979
-45,177
-43,332
-41,474
-39,62
-37,772
-35,946
-34,156
-32,414
-30,744
-29,165
-27,69
-26,336
-25,107
-24,001
-23,012
-22,122
-21,314
-20,579
-19,912
-19,313
-18,786
-18,331
-17,953
-17,658
-17,446
-17,319
-17,274
-17,307
-17,414
-17,596
-17,849
-18,176
-18,578
-19,053
-19,6
-20,217
-20,901
-21,647
-22,45
-23,302
-24,196
-25,127
-26,089
-27,077
-28,085
-29,111
-30,148
-31,195
-32,246
-33,299
-34,35
-35,395
-36,431
-37,454
-38,461
-39,45
-40,42
-41,368
-42,295
-43,199
-44,08
-44,94
-45,778
-46,595
-47,392
-48,169
-48,929
-49,671
-50,398
-51,11
-51,809
-52,497
-53,176
-53,848
-54,514
-55,176
-55,835
-56,493
-57,149
-57,805
-58,461
-59,117
-59,773
-60,429
-61,085
-61,74
-62,393
-63,043
-63,69
-64,33
-64,962
-65,584
-66,193
-66,787
-67,362
-67,918
-68,45
-68,957
-69,438
-69,889
-70,31
-70,698
-71,051
-71,37
-71,651
-71,895
-72,101
-72,267
-72,393
-72,48
-72,528
-72,537
-72,507
-72,441
-72,339
-72,203
-72,034
-71,836
-71,611
-71,361
-71,091
-70,802
-70,5
-70,187
-69,869
-69,548
-69,23
-68,917
-68,613
-68,322
-68,048
-67,793
-67,561
-67,353
-67,173
-67,023
-66,904
-66,82
-66,772
-66,761
-66,789
-66,858
-66,969
-67,122
-67,318
-67,557
-67,84
-68,167
-68,537
-68,949
-69,402
-69,896
-70,428
-70,996
-71,598
-72,231
-72,893
-73,58
-74,289
-75,017
-75,761
-76,517
-77,283
-78,054
-78,828
-79,602
-80,371
-81,132
-81,882
-82,616
-83,33
-84,022
-84,685
-85,316
-85,912
-86,466
-86,976
-87,437
-87,844
-88,193
-88,48
-88,701
-88,851
-88,927
-88,925
-88,842
-88,677
-88,426
-88,087
-87,659
-87,141
-86,532
-85,831
-85,038
-84,152
-83,175
-82,108
-80,951
-79,707
-78,38
-76,972
-75,488
-73,934
-72,313
-70,633
-68,901
-67,123
-65,307
-63,463
-61,599
-59,727
-57,859
-56,007
-54,185
-52,407
-50,688
-49,042
-47,485
-46,029
-44,687
-43,471
-42,392
-41,463
-40,696
-40,104
-39,695
-39,482
-39,472
-39,672
-40,091
-40,731
-41,593
-42,676
-43,98
-45,505
-47,259
-49,247
-51,472
-53,932
-56,62
-59,525
-62,638
-65,937
-69,392
-72,967
-76,621
-80,314
-84,01
-87,671
-91,251
-94,698
-97,944
-100,923
-103,581
-105,87
-107,759
-109,23
-110,269
-110,877
-111,082
-110,938
-110,522
-109,927
-109,25
-108,59
-108,052
-107,778
-107,967
-108,768
-110,24
-112,338
-114,866
-117,608
-120,425
-123,114
-125,356
-126,947
-127,813
-128,094
-128,313
-129,01
-130,444
-132,787
-136,146
-140,257
-144,625
-148,477
-150,387
-148,715
-142,072
-129,189
-108,942
-80,807
-44,532
0,079
52,487
111,509
175,842
243,809
313,3
382,494
449,352
510,943
564,366
607,191
636,916
651,373
649,391
629,842
591,982
538,019
471,006
392,531
306,252
213,722
115,659
19,743
-67,798
-140,714
-192,159
-225,181
-243,641
-250,598
-250,929
-244,082
-229,826
-210,173
-186,348
-161,402
-137,947
-117,254
-100,672
-88,407
-80,107
-75,341
-73,032
-72,299
-72,38
-72,137
-70,745
-67,819
-63,124
-56,769
-49,215
-40,918
-32,614
-25,337
-19,687
-16,008
-14,639
-15,826
-19,765
-26,368
-34,918
-44,341
-53,918
-63,131
-71,432
-78,159
-82,472
-83,917
-82,806
-79,914
-75,836
-70,952
-65,58
-60,146
-55,336
-51,621
-48,923
-46,789
-44,83
-42,866
-40,87
-38,838
-36,587
-33,961
-31,016
-27,971
-25,044
-22,336
-19,83
-17,442
-15,142
-12,927
-10,765
-8,594
-6,339
-3,941
-1,369
1,382
4,318
7,451
10,8
14,384
18,22
22,315
26,671
31,286
36,159
41,292
46,688
52,35
58,279
64,471
70,921
77,623
84,575
91,771
99,202
106,855
114,708
122,741
130,932
139,255
147,685
156,187
164,718
173,239
181,712
190,098
198,371
206,5
214,456
222,209
229,728
236,991
243,987
250,712
257,155
263,309
269,173
274,747
280,051
285,097
289,884
294,411
298,661
302,612
306,248
309,551
312,496
315,053
317,178
318,816
319,923
320,454
320,364
319,606
318,118
315,848
312,763
308,839
304,064
298,438
291,955
284,613
276,421
267,399
257,576
247,015
235,771
223,902
211,479
198,573
185,269
171,659
157,824
143,842
129,795
115,763
101,833
88,11
74,697
61,685
49,166
37,195
25,817
15,079
5,011
-4,362
-13,024
-20,979
-28,234
-34,799
-40,689
-45,936
-50,583
-54,699
-58,37
-61,672
-64,682
-67,455
-70,031
-72,454
-74,759
-76,973
-79,12
-81,209
-83,244
-85,233
-87,185
-89,095
-90,951
-92,724
-94,369
-95,853
-97,15
-98,242
-99,123
-99,79
-100,242
-100,487
-100,542
-100,423
-100,151
-99,742
-99,209
-98,569
-97,846
-97,065
-96,26
-95,457
-94,675
-93,933
-93,241
-92,61
-92,047
-91,553
-91,126
-90,762
-90,459
-90,215
-90,031
-89,904
-89,831
-89,806
-89,824
-89,881
-89,971
-90,092
-90,238
-90,406
-90,592
-90,793
-91,007
-91,233
-91,467
-91,706
-91,944
-92,179
-92,407
-92,625
-92,829
-93,016
-93,184
-93,331
-93,458
-93,562
-93,644
-93,704
-93,742
-93,758
-93,755
-93,733
-93,694
-93,639
-93,572
-93,494
-93,409
-93,318
-93,225
-93,132
-93,042
-92,956
-92,879
-92,812
-92,757
-92,717
-92,694
-92,692
-92,712
-92,756
-92,826
-92,924
-93,052
-93,211
-93,4
-93,622
-93,875
-94,16
-94,477
-94,826
-95,206
-95,616
-96,055
-96,522
-97,015
-97,533
-98,072
-98,632
-99,209
-99,801
-100,405
-101,019
-101,64
-102,265
-102,893
-103,52
-104,144
-104,763
-105,373
-105,972
-106,558
-107,128
-107,679
-108,211
-108,721
-109,207
-109,668
-110,103
-110,511
-110,89
-111,239
-111,557
-111,843
-112,097
-112,317
-112,505
-112,66
-112,782
-112,873
-112,933
-112,964
-112,967
-112,943
-112,894
-112,822
-112,729
-112,615
-112,485
-112,34
-112,183
-112,016
-111,842
-111,663
-111,482
-111,3
-111,121
-110,946
-110,776
-110,614
-110,462
-110,321
-110,193
-110,08
-109,983
-109,904
-109,843
-109,802
-109,78
-109,778
-109,796
-109,831
-109,884
-109,953
-110,036
-110,13
-110,233
-110,343
-110,455
-110,565
-110,669
-110,762
-110,839
-110,896
-110,926
-110,925
-110,887
-110,806
-110,679
-110,498
-110,26
-109,958
-109,589
-109,146
-108,624
-108,019
-107,326
-106,539
-105,655
-104,671
-103,583
-102,387
-101,083
-99,668
-98,142
-96,504
-94,755
-92,895
-90,927
-88,854
-86,679
-84,408
-82,046
-79,601
-77,078
-74,487
-71,836
-69,135
-66,393
-63,62
-60,827
-58,026
-55,226
-52,44
-49,68
-46,961
-44,296
-41,701
-39,192
-36,783
-34,493
-32,335
-30,328
-28,484
-26,816
-25,335
-24,054
-22,982
-22,132
-21,512
-21,13
-20,993
-21,106
-21,471
-22,089
-22,96
-24,076
-25,43
-27,015
-28,827
-30,871
-33,147
-35,653
-38,384
-41,329
-44,474
-47,805
-51,295
-54,907
-58,601
-62,328
-66,045
-69,717
-73,299
-76,744
-79,992
-82,966
-85,599
-87,832
-89,612
-90,912
-91,709
-91,99
-91,771
-91,088
-90
-88,602
-86,99
-85,262
-83,539
-81,924
-80,576
-79,731
-79,532
-80,044
-81,196
-82,705
-84,307
-85,819
-86,944
-87,316
-86,692
-84,952
-82,45
-80,049
-78,49
-78,323
-79,889
-83,248
-88,304
-94,61
-100,745
-104,473
-103,469
-95,466
-78,809
-52,435
-15,364
32,762
91,071
157,642
229,858
304,617
379,142
450,865
516,813
574,198
620,785
654,918
675,569
682,304
674,793
652,786
616,772
567,809
507,393
437,599
360,903
279,901
197,547
117,437
43,046
-22,458
-76,297
-116,813
-143,26
-155,418
-154,091
-141,388
-120,046
-93,38
-64,971
-37,622
-13,682
4,822
16,91
22,605
22,604
18,469
12,164
5,314
-0,483
-3,871
-4,241
-1,441
4,265
12,043
20,88
29,838
37,913
44,373
48,936
51,495
52,165
51,284
49,216
46,383
43,284
40,272
37,536
35,214
33,369
32,041
31,305
31,18
31,637
32,662
34,242
36,365
39,024
42,184
45,769
49,703
53,907
58,302
62,831
67,429
72,021
76,548
80,962
85,228
89,336
93,28
97,055
100,669
104,137
107,481
110,733
113,926
117,088
120,249
123,44
126,693
130,044
133,525
137,159
140,969
144,97
149,177
153,603
158,26
163,153
168,287
173,669
179,301
185,189
191,335
197,74
204,405
211,329
218,51
225,939
233,606
241,496
249,592
257,87
266,302
274,854
283,493
292,186
300,899
309,608
318,278
326,88
335,384
343,759
351,979
360,032
367,906
375,595
383,104
390,437
397,611
404,654
411,578
418,391
425,09
431,662
438,094
444,367
450,45
456,307
461,897
467,155
472,021
476,423
480,272
483,482
485,969
487,631
488,398
488,215
487,037
484,843
481,62
477,37
472,117
465,901
458,77
450,795
442,057
432,649
422,692
412,3
401,583
390,664
379,643
368,608
357,644
346,816
336,181
325,788
315,671
305,853
296,356
287,188
278,348
269,826
261,596
253,636
245,935
238,476
231,252
224,263
217,509
210,997
204,742
198,758
193,059
187,662
182,578
177,822
173,411
169,361
165,695
162,424
159,555
157,091
155,03
153,364
152,084
151,176
150,619
150,393
150,479
150,856
151,504
152,402
153,528
154,859
156,371
158,042
159,85
161,774
163,794
165,891
168,045
170,239
172,457
174,684
176,904
179,101
181,261
183,368
185,412
187,379
189,257
191,036
192,707
194,261
195,692
196,994
198,161
199,189
200,075
200,816
201,409
201,854
202,148
202,292
202,284
202,125
201,814
201,353
200,741
199,98
199,07
198,012
196,808
195,459
193,965
192,328
190,548
188,627
186,565
184,365
182,026
179,551
176,941
174,198
171,323
168,32
165,189
161,932
158,552
155,05
151,43
147,693
143,843
139,883
135,816
131,647
127,38
123,02
118,571
114,039
109,429
104,748
100,002
95,196
90,339
85,437
80,497
75,527
70,536
65,53
60,518
55,507
50,506
45,521
40,559
35,627
30,731
25,877
21,072
16,32
11,626
6,996
2,433
-2,06
-6,478
-10,82
-15,083
-19,266
-23,368
-27,389
-31,329
-35,188
-38,968
-42,67
-46,296
-49,849
-53,332
-56,746
-60,097
-63,388
-66,623
-69,807
-72,943
-76,035
-79,088
-82,106
-85,092
-88,05
-90,982
-93,891
-96,779
-99,649
-102,503
-105,343
-108,169
-110,984
-113,787
-116,582
-119,367
-122,142
-124,908
-127,664
-130,409
-133,142
-135,862
-138,567
-141,256
-143,927
-146,579
-149,211
-151,822
-154,41
-156,973
-159,511
-162,021
-164,503
-166,957
-169,382
-171,778
-174,147
-176,49
-178,809
-181,107
-183,387
-185,651
-187,903
-190,147
-192,384
-194,618
-196,851
-199,086
-201,328
-203,581
-205,848
-208,135
-210,446
-212,788
-215,167
-217,587
-220,052
-222,565
-225,128
-227,742
-230,408
-233,128
-235,9
-238,727
-241,608
-244,547
-247,547
-250,61
-253,735
-256,917
-260,15
-263,429
-266,751
-270,113
-273,511
-276,947
-280,426
-283,962
-287,568
-291,252
-295,016
-298,857
-302,761
-306,72
-310,718
-314,74
-318,773
-322,807
-326,827
-330,83
-334,809
-338,743
-342,602
-346,341
-349,911
-353,274
-356,402
-359,273
-361,877
-364,215
-366,308
-368,195
-369,915
-371,498
-372,974
-374,362
-375,684
-376,978
-378,293
-379,687
-381,226
-382,965
-384,95
-387,235
-389,861
-392,839
-396,143
-399,715
-403,488
-407,404
-411,405
-415,437
-419,434
-423,322
-427,031
-430,496
-433,65
-436,424
-438,751
-440,549
-441,742
-442,291
-442,195
-441,485
-440,204
-438,396
-436,11
-433,406
-430,368
-427,067
-423,565
-419,907
-416,133
-412,294
-408,447
-404,66
-401
-397,516
-394,232
-391,162
-388,314
-385,686
-383,275
-381,058
-378,996
-377,062
-375,249
-373,553
-371,986
-370,549
-369,24
-368,055
-366,992
-366,052
-365,241
-364,562
-364,019
-363,621
-363,378
-363,304
-363,423
-363,751
-364,297
-365,076
-366,095
-367,352
-368,85
-370,577
-372,519
-374,656
-376,964
-379,402
-381,93
-384,502
-387,068
-389,592
-392,023
-394,307
-396,379
-398,161
-399,576
-400,565
-401,078
-401,079
-400,551
-399,486
-397,898
-395,835
-393,364
-390,575
-387,571
-384,453
-381,338
-378,338
-375,607
-373,375
-371,794
-370,917
-370,684
-370,832
-371,077
-371,238
-371,02
-370,009
-367,969
-364,762
-360,574
-356,208
-352,382
-349,495
-347,959
-347,897
-349,057
-351,13
-353,096
-352,821
-348,139
-337,097
-317,768
-289
-250,096
-200,301
-139,828
-70,271
6,251
87,166
169,478
250,651
328,161
398,836
459,807
508,894
544,328
564,893
569,995
559,053
531,692
488,658
431,456
362,07
283,14
197,689
108,733
19,697
-65,323
-142,697
-209,474
-263,295
-303,029
-328,438
-339,522
-337,148
-323,657
-301,908
-274,968
-246,022
-217,422
-191,069
-169,137
-153,229
-143,706
-140,19
-141,658
-146,623
-153,944
-162,49
-170,586
-176,707
-180,012
-180,183
-177,465
-172,461
-165,679
-157,703
-149,464
-141,906
-135,618
-130,868
-127,617
-125,631
-124,703
-124,615
-125,019
-125,517
-125,873
-125,987
-125,864
-125,589
-125,191
-124,645
-123,959
-123,167
-122,273
-121,266
-120,111
-118,737
-117,121
-115,282
-113,241
-111,032
-108,669
-106,141
-103,449
-100,6
-97,602
-94,476
-91,232
-87,868
-84,399
-80,845
-77,234
-73,603
-69,972
-66,334
-62,685
-59,01
-55,299
-51,546
-47,738
-43,852
-39,87
-35,773
-31,545
-27,175
-22,644
-17,927
-12,998
-7,828
-2,396
3,31
9,302
15,591
22,179
29,067
36,247
43,701
51,414
59,368
67,541
75,905
84,432
93,09
101,848
110,681
119,562
128,465
137,362
146,224
155,03
163,767
172,429
181,013
189,521
197,951
206,315
214,629
222,905
231,147
239,352
247,501
255,573
263,536
271,357
278,995
286,398
293,499
300,224
306,488
312,21
317,312
321,706
325,304
328,029
329,823
330,644
330,473
329,307
327,162
324,072
320,079
315,246
309,652
303,384
296,548
289,244
281,56
273,592
265,433
257,157
248,827
240,489
232,159
223,851
215,559
207,26
198,937
190,564
182,113
173,558
164,864
156,013
147,013
137,877
128,629
119,322
110,015
100,787
91,75
83,009
74,669
66,854
59,661
53,181
47,501
42,689
38,802
35,883
33,94
32,965
32,935
33,798
35,489
37,923
40,982
44,56
48,554
52,855
57,373
62,028
66,74
71,45
76,108
80,672
85,116
89,428
93,597
97,63
101,545
105,368
109,147
112,916
116,699
120,523
124,398
128,332
132,33
136,386
140,485
144,614
148,758
152,895
157,013
161,088
165,097
169,011
172,8
176,438
179,908
183,195
186,291
189,19
191,887
194,385
196,691
198,81
200,747
202,506
204,091
205,507
206,76
207,859
208,81
209,621
210,298
210,847
211,275
211,588
211,791
211,89
211,888
211,791
211,604
211,335
210,988
210,571
210,09
209,55
208,958
208,319
207,639
206,92
206,168
205,386
204,576
203,742
202,887
202,014
201,125
200,224
199,313
198,395
197,473
196,55
195,629
194,712
193,802
192,901
192,011
191,134
190,272
189,426
188,596
187,784
186,989
186,212
185,453
184,711
183,984
183,273
182,575
181,89
181,215
180,55
179,892
179,241
178,595
177,952
177,309
176,667
176,02
175,369
174,709
174,038
173,353
172,651
171,929
171,185
170,415
169,616
168,787
167,924
167,026
166,09
165,114
164,096
163,037
161,934
160,788
159,599
158,367
157,092
155,776
154,421
153,027
151,597
150,133
148,638
147,113
145,561
143,986
142,391
140,779
139,153
137,517
135,875
134,23
132,586
130,946
129,313
127,692
126,084
124,492
122,921
121,372
119,847
118,349
116,879
115,439
114,029
112,65
111,302
109,985
108,698
107,44
106,209
105,005
103,825
102,667
101,528
100,406
99,299
98,202
97,113
96,029
94,946
93,863
92,776
91,682
90,58
89,467
88,341
87,2
86,043
84,868
83,675
82,463
81,23
79,979
78,707
77,417
76,109
74,785
73,445
72,091
70,725
69,351
67,968
66,582
65,193
63,806
62,424
61,05
59,686
58,338
57,006
55,696
54,407
53,144
51,908
50,701
49,523
48,376
47,26
46,175
45,122
44,098
43,104
42,138
41,198
40,281
39,385
38,507
37,643
36,791
35,948
35,11
34,273
33,435
32,592
31,74
30,876
29,995
29,093
28,168
27,216
26,235
25,221
24,172
23,088
21,967
20,809
19,613
18,382
17,114
15,813
14,48
13,118
11,73
10,32
8,893
7,454
6,01
4,565
3,126
1,701
0,295
-1,085
-2,431
-3,738
-4,998
-6,205
-7,351
-8,43
-9,435
-10,358
-11,194
-11,937
-12,581
-13,122
-13,556
-13,881
-14,093
-14,191
-14,174
-14,043
-13,796
-13,435
-12,962
-12,38
-11,692
-10,902
-10,016
-9,04
-7,983
-6,853
-5,659
-4,414
-3,128
-1,815
-0,488
0,839
2,152
3,438
4,681
5,865
6,973
7,992
8,903
9,69
10,336
10,824
11,139
11,267
11,198
10,923
10,431
9,709
8,746
7,53
6,047
4,28
2,21
-0,186
-2,921
-5,999
-9,423
-13,191
-17,301
-21,746
-26,514
-31,588
-36,947
-42,563
-48,403
-54,423
-60,558
-66,73
-72,846
-78,807
-84,523
-89,916
-94,914
-99,444
-103,445
-106,877
-109,722
-111,986
-113,682
-114,828
-115,455
-115,62
-115,422
-114,997
-114,513
-114,156
-114,11
-114,536
-115,621
-117,604
-120,647
-124,804
-130,008
-135,977
-142,395
-149,026
-155,532
-161,468
-166,513
-170,417
-173,191
-175,43
-177,764
-180,613
-184,464
-189,526
-195,633
-202,591
-209,57
-214,628
-215,626
-210,396
-196,626
-172,789
-137,888
-90,922
-31,941
37,63
115,733
199,469
285,326
370,216
451,015
524,292
587,255
637,669
673,778
694,772
700,385
690,631
666,061
627,465
575,813
512,711
440,089
360,145
275,583
188,881
102,479
19,566
-56,716
-123,747
-179,313
-222,375
-253,006
-271,175
-277,227
-272,778
-259,933
-241,238
-219,514
-196,598
-173,604
-152,05
-133,484
-118,884
-108,901
-103,315
-101,222
-102,213
-106,134
-112,384
-120,038
-127,976
-134,972
-140,522
-144,767
-147,708
-149,306
-149,667
-149,001
-147,823
-146,865
-146,448
-146,49
-146,857
-147,322
-147,699
-147,911
-147,763
-146,962
-145,36
-142,927
-139,724
-135,934
-131,734
-127,236
-122,565
-117,857
-113,222
-108,787
-104,645
-100,836
-97,375
-94,254
-91,442
-88,916
-86,657
-84,635
-82,802
-81,093
-79,421
-77,726
-75,972
-74,129
-72,16
-70,02
-67,674
-65,11
-62,351
-59,416
-56,314
-53,04
-49,582
-45,939
-42,121
-38,146
-34,029
-29,769
-25,347
-20,742
-15,945
-10,942
-5,714
-0,223
5,585
11,74
18,245
25,078
32,217
39,648
47,36
55,341
63,564
71,993
80,588
89,31
98,119
106,969
115,806
124,562
133,173
141,598
149,814
157,818
165,601
173,151
180,463
187,535
194,371
200,977
207,352
213,496
219,422
225,149
230,687
236,051
241,232
246,203
250,931
255,375
259,49
263,229
266,529
269,32
271,549
273,169
274,136
274,404
273,9
272,551
270,306
267,122
262,989
257,921
251,931
245,041
237,297
228,754
219,484
209,57
199,068
188,025
176,5
164,563
152,321
139,889
127,369
114,862
102,449
90,19
78,149
66,379
54,911
43,767
32,963
22,51
12,446
2,823
-6,321
-14,963
-23,108
-30,781
-38,007
-44,824
-51,259
-57,336
-63,072
-68,481
-73,562
-78,31
-82,725
-86,805
-90,569
-94,053
-97,286
-100,292
-103,081
-105,65
-107,987
-110,076
-111,9
-113,448
-114,714
-115,702
-116,423
-116,893
-117,129
-117,15
-116,969
-116,588
-116,014
-115,252
-114,316
-113,225
-112,002
-110,677
-109,278
-107,833
-106,366
-104,895
-103,437
-102,002
-100,601
-99,238
-97,921
-96,658
-95,456
-94,323
-93,266
-92,286
-91,386
-90,563
-89,816
-89,141
-88,535
-87,995
-87,517
-87,099
-86,738
-86,434
-86,184
-85,986
-85,836
-85,731
-85,667
-85,641
-85,647
-85,682
-85,743
-85,825
-85,925
-86,042
-86,173
-86,314
-86,465
-86,622
-86,785
-86,953
-87,123
-87,297
-87,473
-87,651
-87,833
-88,019
-88,21
-88,408
-88,613
-88,827
-89,053
-89,29
-89,542
-89,808
-90,091
-90,392
-90,713
-91,053
-91,415
-91,798
-92,205
-92,634
-93,086
-93,561
-94,058
-94,578
-95,118
-95,679
-96,259
-96,857
-97,471
-98,099
-98,741
-99,393
-100,054
-100,721
-101,392
-102,064
-102,735
-103,403
-104,065
-104,72
-105,364
-105,996
-106,615
-107,218
-107,803
-108,368
-108,913
-109,437
-109,937
-110,413
-110,864
-111,29
-111,691
-112,066
-112,415
-112,738
-113,035
-113,306
-113,552
-113,772
-113,967
-114,137
-114,283
-114,407
-114,507
-114,587
-114,645
-114,683
-114,702
-114,701
-114,681
-114,643
-114,585
-114,509
-114,415
-114,302
-114,171
-114,021
-113,852
-113,664
-113,457
-113,231
-112,986
-112,721
-112,436
-112,132
-111,809
-111,468
-111,11
-110,734
-110,343
-109,937
-109,518
-109,087
-108,644
-108,192
-107,732
-107,265
-106,793
-106,318
-105,842
-105,367
-104,896
-104,431
-103,973
-103,527
-103,093
-102,675
-102,274
-101,893
-101,534
-101,199
-100,889
-100,606
-100,351
-100,126
-99,93
-99,763
-99,626
-99,517
-99,436
-99,381
-99,349
-99,34
-99,35
-99,377
-99,417
-99,468
-99,527
-99,59
-99,653
-99,712
-99,764
-99,806
-99,832
-99,839
-99,824
-99,782
-99,71
-99,604
-99,461
-99,278
-99,052
-98,781
-98,463
-98,095
-97,678
-97,21
-96,69
-96,12
-95,499
-94,829
-94,113
-93,351
-92,547
-91,704
-90,827
-89,918
-88,983
-88,027
-87,054
-86,07
-85,079
-84,086
-83,097
-82,117
-81,149
-80,199
-79,271
-78,369
-77,498
-76,662
-75,864
-75,106
-74,393
-73,725
-73,104
-72,532
-72,009
-71,535
-71,111
-70,736
-70,408
-70,125
-69,887
-69,689
-69,527
-69,398
-69,296
-69,215
-69,15
-69,092
-69,035
-68,971
-68,894
-68,796
-68,671
-68,513
-68,316
-68,075
-67,783
-67,435
-67,026
-66,549
-65,996
-65,361
-64,636
-63,817
-62,897
-61,872
-60,738
-59,492
-58,133
-56,658
-55,066
-53,352
-51,51
-49,538
-47,434
-45,203
-42,851
-40,389
-37,833
-35,199
-32,505
-29,764
-26,987
-24,174
-21,323
-18,426
-15,477
-12,477
-9,433
-6,354
-3,246
-0,113
3,047
6,243
9,492
12,816
16,241
19,781
23,439
27,201
31,035
34,894
38,718
42,46
46,082
49,558
52,865
55,975
58,855
61,462
63,75
65,664
67,138
68,112
68,533
68,367
67,616
66,316
64,531
62,318
59,72
56,764
53,47
49,877
46,031
41,982
37,776
33,466
29,132
24,882
20,845
17,14
13,846
10,992
8,561
6,529
4,904
3,722
3,027
2,84
3,145
3,896
5,087
6,741
8,795
11,095
13,332
15,05
15,974
16,049
15,277
13,715
11,426
8,36
4,817
1,537
-1,002
-2,531
-3,022
-2,899
-2,388
-1,33
-0,054
0,65
0,129
-2,527
-7,76
-15,094
-24,309
-35,245
-47,074
-58,771
-68,878
-74,878
-74,56
-66,379
-48,465
-19,547
21,011
73,974
139,087
214,532
298,091
387,106
478,148
568,197
654,224
732,426
799,471
852,874
890,609
911,426
914,923
900,787
868,99
820,656
757,563
681,878
596,363
504,049
407,866
311,118
217,827
131,626
55,61
-7,523
-56,332
-90,292
-109,092
-113,498
-105,864
-89,059
-66,38
-41,53
-17,216
4,332
20,664
30,465
33,74
31,029
23,728
13,824
2,73
-8,089
-16,76
-22,296
-24,412
-23,096
-19,024
-13,14
-6,099
1,209
7,667
12,69
16
17,499
17,467
16,195
13,868
10,834
7,514
4,167
0,975
-1,993
-4,798
-7,46
-9,96
-12,291
-14,442
-16,41
-18,195
-19,771
-21,09
-22,108
-22,78
-23,102
-23,093
-22,77
-22,159
-21,266
-20,092
-18,65
-16,958
-15,042
-12,927
-10,625
-8,142
-5,497
-2,714
0,172
3,118
6,107
9,138
12,21
15,331
18,504
21,73
25,021
28,399
31,881
35,484
39,217
43,087
47,11
51,305
55,697
60,31
65,161
70,255
75,6
81,2
87,055
93,169
99,534
106,131
112,945
119,959
127,153
134,506
141,985
149,551
157,169
164,803
172,42
179,994
187,492
194,881
202,135
209,224
216,127
222,834
229,335
235,624
241,708
247,592
253,293
258,837
264,233
269,484
274,587
279,528
284,294
288,868
293,215
297,301
301,085
304,513
307,527
310,068
312,05
313,399
314,042
313,897
312,91
311,038
308,245
304,512
299,834
294,214
287,676
280,258
271,995
262,935
253,134
242,656
231,585
219,998
207,96
195,54
182,797
169,789
156,575
143,208
129,727
116,174
102,586
88,995
75,445
61,985
48,658
35,511
22,594
9,96
-2,328
-14,199
-25,594
-36,464
-46,763
-56,457
-65,505
-73,874
-81,55
-88,523
-94,795
-100,385
-105,316
-109,626
-113,377
-116,626
-119,436
-121,88
-124,012
-125,88
-127,532
-129
-130,318
-131,514
-132,604
-133,599
-134,509
-135,334
-136,066
-136,691
-137,173
-137,488
-137,614
-137,53
-137,226
-136,698
-135,944
-134,968
-133,786
-132,411
-130,86
-129,154
-127,309
-125,347
-123,293
-121,176
-119,028
-116,879
-114,748
-112,653
-110,609
-108,622
-106,703
-104,856
-103,078
-101,371
-99,736
-98,176
-96,694
-95,292
-93,964
-92,705
-91,506
-90,367
-89,286
-88,269
-87,323
-86,457
-85,686
-85,024
-84,485
-84,074
-83,788
-83,614
-83,539
-83,546
-83,627
-83,779
-83,998
-84,276
-84,603
-84,97
-85,359
-85,746
-86,098
-86,368
-86,523
-86,548
-86,441
-86,222
-85,916
-85,555
-85,17
-84,789
-84,434
-84,132
-83,9
-83,747
-83,693
-83,766
-84,009
-84,486
-85,244
-86,302
-87,667
-89,321
-91,236
-93,374
-95,685
-98,102
-100,569
-103,038
-105,473
-107,857
-110,16
-112,349
-114,375
-116,171
-117,686
-118,89
-119,759
-120,276
-120,442
-120,257
-119,753
-118,988
-118,01
-116,855
-115,547
-114,093
-112,507
-110,811
-109,032
-107,2
-105,344
-103,48
-101,633
-99,833
-98,103
-96,467
-94,927
-93,457
-92,045
-90,688
-89,388
-88,159
-87,013
-85,954
-84,994
-84,15
-83,436
-82,87
-82,461
-82,21
-82,118
-82,189
-82,431
-82,866
-83,511
-84,376
-85,469
-86,795
-88,357
-90,16
-92,204
-94,478
-96,973
-99,677
-102,582
-105,681
-108,965
-112,422
-116,041
-119,803
-123,694
-127,696
-131,791
-135,958
-140,179
-144,431
-148,693
-152,949
-157,179
-161,365
-165,487
-169,526
-173,464
-177,284
-180,967
-184,497
-187,856
-191,029
-194,002
-196,762
-199,298
-201,599
-203,656
-205,462
-207,011
-208,299
-209,322
-210,078
-210,567
-210,789
-210,747
-210,445
-209,886
-209,077
-208,026
-206,741
-205,231
-203,506
-201,577
-199,455
-197,152
-194,68
-192,053
-189,283
-186,384
-183,37
-180,254
-177,051
-173,776
-170,442
-167,062
-163,652
-160,223
-156,788
-153,36
-149,951
-146,573
-143,236
-139,95
-136,726
-133,574
-130,501
-127,515
-124,622
-121,83
-119,143
-116,565
-114,101
-111,754
-109,526
-107,419
-105,436
-103,578
-101,845
-100,236
-98,752
-97,39
-96,149
-95,027
-94,021
-93,128
-92,343
-91,664
-91,086
-90,604
-90,214
-89,909
-89,683
-89,53
-89,442
-89,411
-89,428
-89,486
-89,576
-89,689
-89,817
-89,954
-90,091
-90,222
-90,34
-90,438
-90,511
-90,55
-90,547
-90,494
-90,382
-90,203
-89,95
-89,613
-89,185
-88,658
-88,029
-87,293
-86,448
-85,485
-84,396
-83,177
-81,826
-80,346
-78,742
-77,02
-75,189
-73,263
-71,267
-69,221
-67,147
-65,055
-62,946
-60,819
-58,68
-56,532
-54,381
-52,228
-50,055
-47,857
-45,628
-43,362
-41,052
-38,673
-36,181
-33,542
-30,734
-27,751
-24,619
-21,359
-17,994
-14,567
-11,121
-7,718
-4,435
-1,332
1,549
4,156
6,444
8,341
9,749
10,585
10,786
10,299
9,109
7,208
4,599
1,327
-2,547
-6,947
-11,781
-16,978
-22,483
-28,225
-34,134
-40,125
-46,081
-51,878
-57,396
-62,501
-67,095
-71,115
-74,504
-77,238
-79,303
-80,676
-81,34
-81,302
-80,551
-79,062
-76,887
-74,132
-70,989
-67,782
-64,834
-62,389
-60,642
-59,745
-59,583
-59,87
-60,238
-60,111
-59,038
-56,771
-53,135
-48,112
-42,163
-36,06
-30,561
-26,637
-25,04
-26,217
-30,673
-38,745
-50,125
-64,033
-79,652
-95,694
-110,823
-123,842
-133,025
-136,401
-132,406
-119,739
-97,124
-64,023
-20,225
34,479
99,324
172,743
252,899
337,451
423,607
508,859
590,553
665,517
730,949
784,42
823,814
847,618
854,869
844,884
817,484
773,411
714,123
641,762
558,959
468,796
374,597
279,666
187,616
101,988
25,719
-38,913
-90,327
-128,011
-152,085
-162,819
-161,524
-150,494
-132,303
-109,739
-85,44
-61,34
-39,17
-20,949
-8,012
-0,634
1,557
-0,444
-5,425
-12,484
-20,644
-28,422
-34,451
-38,026
-38,971
-37,621
-34,587
