Lead,Lead I
-195,649
-236,033
-263,213
-280,706
-290,75
-295,237
-295,534
-290,712
-281,274
-269,273
-256,41
-244,157
-233,402
-224,172
-216,183
-209,087
-202,307
-195,047
-186,779
-177,329
-166,676
-155,038
-142,744
-130,096
-117,517
-105,502
-94,384
-84,359
-75,545
-67,966
-61,634
-56,559
-52,678
-49,871
-48,03
-47,047
-46,828
-47,304
-48,377
-49,92
-51,799
-53,882
-56,034
-58,133
-60,052
-61,647
-62,802
-63,427
-63,461
-62,882
-61,675
-59,825
-57,322
-54,149
-50,289
-45,747
-40,532
-34,66
-28,184
-21,162
-13,679
-5,854
2,22
10,45
18,728
26,97
35,074
42,929
50,452
57,508
63,897
69,504
74,305
78,431
82,254
86,164
90,481
95,63
102,077
110,112
119,788
130,635
141,618
151,678
159,975
165,859
168,87
168,933
166,564
163,299
161,684
164,636
174,959
195,018
226,875
272,082
331,221
403,518
486,714
577,354
671,356
764,49
852,096
929,393
992,074
1036,571
1060,534
1063,033
1044,157
1004,926
947,714
875,919
793,718
705,871
616,978
531,316
453,025
385,586
331,423
292,102
267,89
258,031
261,47
276,329
299,817
329,05
361,127
393,163
423,132
449,378
470,096
484,52
492,902
495,858
494,598
490,656
485,137
479,338
474,974
472,996
473,711
477,137
482,698
489,649
497,482
505,464
512,623
518,451
522,756
525,533
527,138
527,958
528,264
528,445
528,931
529,965
531,688
534,168
537,349
541,202
545,723
550,856
556,538
562,724
569,361
576,405
583,814
591,512
599,417
607,456
615,558
623,678
631,779
639,826
647,789
655,641
663,359
670,926
678,333
685,564
692,605
699,437
706,037
712,401
718,533
724,449
730,172
735,722
741,12
746,395
751,585
756,733
761,888
767,083
772,349
777,721
783,24
788,954
794,927
801,202
807,8
814,724
821,959
829,483
837,263
845,254
853,392
861,6
869,81
877,963
886,011
893,897
901,565
908,953
915,999
922,657
928,905
934,736
940,16
945,204
949,898
954,277
958,386
962,266
965,945
969,445
972,777
975,954
978,99
981,883
984,618
987,163
989,463
991,445
993,018
994,065
994,472
994,142
992,981
990,914
987,883
983,827
978,696
972,442
965,016
956,39
946,563
935,554
923,418
910,239
896,133
881,247
865,738
849,746
833,402
816,829
800,144
783,473
766,945
750,695
734,87
719,613
705,05
691,29
678,399
666,413
655,335
645,142
635,79
627,243
619,464
612,413
606,05
600,326
595,18
590,538
586,304
582,371
578,627
574,977
571,352
567,704
564,005
560,24
556,408
552,511
548,554
544,54
540,472
536,354
532,192
528,001
523,813
519,667
515,611
511,68
507,894
504,265
500,793
497,47
494,286
491,221
488,251
485,356
482,518
479,723
476,958
474,207
471,45
468,663
465,82
462,899
459,886
456,77
453,545
450,206
446,753
443,188
439,52
435,754
431,895
427,947
423,911
419,791
415,592
411,32
406,981
402,581
398,124
393,616
389,063
384,467
379,835
375,168
370,47
365,743
360,992
356,221
351,433
346,633
341,824
337,01
332,194
327,381
322,574
317,774
312,985
308,209
303,449
298,707
293,984
289,283
284,606
279,952
275,325
270,725
266,154
261,611
257,099
252,617
248,167
243,749
239,363
235,009
230,687
226,396
222,136
217,907
213,707
209,536
205,393
201,276
197,185
193,118
189,074
185,051
181,047
177,061
173,09
169,133
165,186
161,247
157,312
153,379
149,445
145,506
141,559
137,6
133,627
129,637
125,625
121,59
117,528
113,435
109,311
105,151
100,954
96,718
92,441
88,121
83,757
79,348
74,893
70,39
65,84
61,241
56,593
51,896
47,15
42,357
37,518
32,634
27,709
22,745
17,746
12,718
7,665
2,592
-2,496
-7,593
-12,693
-17,793
-22,886
-27,968
-33,032
-38,074
-43,086
-48,062
-52,995
-57,878
-62,703
-67,463
-72,149
-76,756
-81,276
-85,704
-90,032
-94,253
-98,356
-102,333
-106,182
-109,9
-113,485
-116,942
-120,275
-123,494
-126,612
-129,644
-132,602
-135,496
-138,331
-141,111
-143,84
-146,521
-149,162
-151,761
-154,313
-156,806
-159,226
-161,556
-163,779
-165,871
-167,797
-169,528
-171,048
-172,345
-173,425
-174,301
-174,994
-175,53
-175,941
-176,273
-176,582
-176,931
-177,391
-178,03
-178,915
-180,12
-181,728
-183,815
-186,438
-189,645
-193,46
-197,895
-202,949
-208,605
-214,835
-221,593
-228,821
-236,457
-244,428
-252,669
-261,117
-269,706
-278,355
-286,992
-295,548
-303,956
-312,164
-320,123
-327,79
-335,14
-342,152
-348,818
-355,13
-361,078
-366,649
-371,83
-376,599
-380,943
-384,869
-388,389
-391,535
-394,356
-396,891
-399,191
-401,327
-403,365
-405,389
-407,492
-409,747
-412,277
-415,254
-418,809
-423,014
-427,803
-432,895
-437,938
-442,581
-446,391
-448,906
-449,771
-448,839
-446,477
-443,597
-441,333
-440,825
-443,025
-448,678
-458,208
-471,367
-486,796
-502,084
-514,071
-519,344
-514,947
-498,204
-466,904
-420,068
-358,252
-283,633
-200,068
-112,308
-25,127
56,195
126,282
180,633
215,633
229,071
220,63
190,961
141,36
74,526
-5,971
-96,271
-191,931
-288,781
-383,416
-472,28
-551,977
-620,045
-674,553
-714,251
-739,012
-749,058
-744,865
-727,996
-700,797
-665,929
-626,516
-585,608
-545,764
-509,547
-479,323
-456,607
-441,927
-434,926
-434,446
-438,98
-446,978
-456,616
-465,936
-473,245
-477,524
-478,501
-476,441
-471,908
-465,558
-458,152
-450,594
-443,79
-438,25
-434,062
-431,072
-428,952
-427,363
-426,025
-424,607
-422,751
-420,287
-417,189
-413,505
-409,379
-404,93
-400,237
-395,411
-390,57
-385,786
-381,121
-376,618
-372,284
-368,139
-364,191
-360,41
-356,767
-353,216
-349,707
-346,206
-342,673
-339,062
-335,335
-331,458
-327,397
-323,134
-318,65
-313,92
-308,936
-303,689
-298,186
-292,456
-286,523
-280,412
-274,144
-267,729
-261,178
-254,498
-247,695
-240,77
-233,727
-226,566
-219,292
-211,92
-204,463
-196,938
-189,357
-181,723
-174,039
-166,312
-158,551
-150,772
-143
-135,26
-127,578
-119,977
-112,471
-105,074
-97,791
-90,613
-83,522
-76,484
-69,473
-62,48
-55,499
-48,542
-41,619
-34,736
-27,901
-21,123
-14,412
-7,79
-1,293
5,039
11,145
16,941
22,325
27,171
31,358
34,792
37,391
39,092
39,845
39,598
38,304
35,927
32,428
27,779
21,977
15,037
7,004
-2,038
-11,981
-22,686
-34,003
-45,797
-57,941
-70,309
-82,791
-95,271
-107,627
-119,739
-131,472
-142,689
-153,281
-163,163
-172,272
-180,585
-188,092
-194,813
-200,788
-206,057
-210,665
-214,656
-218,067
-220,945
-223,35
-225,354
-227,048
-228,53
-229,874
-231,142
-232,381
-233,618
-234,877
-236,166
-237,474
-238,785
-240,085
-241,36
-242,605
-243,808
-244,948
-245,993
-246,901
-247,635
-248,168
-248,486
-248,58
-248,448
-248,092
-247,523
-246,764
-245,84
-244,775
-243,588
-242,298
-240,922
-239,486
-238,017
-236,544
-235,094
-233,684
-232,33
-231,046
-229,842
-228,724
-227,696
-226,756
-225,9
-225,127
-224,435
-223,825
-223,294
-222,839
-222,454
-222,134
-221,874
-221,671
-221,518
-221,411
-221,344
-221,312
-221,31
-221,333
-221,377
-221,434
-221,498
-221,561
-221,615
-221,654
-221,669
-221,653
-221,597
-221,496
-221,343
-221,13
-220,854
-220,507
-220,085
-219,584
-218,999
-218,329
-217,568
-216,717
-215,772
-214,734
-213,6
-212,371
-211,047
-209,628
-208,116
-206,511
-204,817
-203,036
-201,171
-199,225
-197,203
-195,109
-192,948
-190,727
-188,45
-186,126
-183,76
-181,36
-178,935
-176,493
-174,042
-171,59
-169,148
-166,722
-164,323
-161,956
-159,632
-157,357
-155,138
-152,982
-150,896
-148,886
-146,956
-145,113
-143,362
-141,706
-140,148
-138,693
-137,343
-136,099
-134,964
-133,937
-133,019
-132,21
-131,508
-130,913
-130,42
-130,027
-129,73
-129,521
-129,396
-129,345
-129,361
-129,433
-129,552
-129,708
-129,89
-130,089
-130,294
-130,495
-130,684
-130,851
-130,989
-131,086
-131,134
-131,123
-131,043
-130,884
-130,638
-130,296
-129,847
-129,285
-128,604
-127,799
-126,866
-125,798
-124,586
-123,225
-121,717
-120,062
-118,264
-116,329
-114,263
-112,082
-109,807
-107,457
-105,054
-102,612
-100,137
-97,637
-95,123
-92,604
-90,091
-87,587
-85,084
-82,578
-80,069
-77,556
-75,04
-72,507
-69,929
-67,287
-64,569
-61,778
-58,933
-56,053
-53,152
-50,256
-47,396
-44,618
-41,987
-39,553
-37,352
-35,422
-33,796
-32,52
-31,662
-31,267
-31,365
-31,97
-33,074
-34,676
-36,777
-39,359
-42,384
-45,794
-49,511
-53,472
-57,629
-61,925
-66,298
-70,666
-74,929
-79,009
-82,841
-86,366
-89,529
-92,261
-94,488
-96,157
-97,242
-97,743
-97,678
-97,058
-95,886
-94,181
-91,997
-89,425
-86,582
-83,587
-80,554
-77,589
-74,84
-72,528
-70,813
-69,779
-69,386
-69,397
-69,57
-69,739
-69,655
-68,983
-67,521
-65,162
-62,129
-59,184
-57,045
-56,277
-57,468
-60,971
-66,851
-74,932
-84,248
-92,853
-98,674
-99,509
-93,091
-77,663
-51,648
-13,799
35,884
96,168
165,113
239,831
316,959
393,162
464,409
526,446
575,761
609,437
625,425
622,991
601,92
562,592
506,88
437,677
358,439
273,35
186,399
100,971
20,84
-50,404
-110,184
-156,725
-189,4
-208,835
-215,821
-211,122
-196,673
-175,046
-148,862
-120,829
-92,944
-66,425
-42,738
-23,599
-9,695
-0,873
3,499
4,593
3,317
0,24
-3,556
-6,514
-7,682
-6,7
-3,615
1,018
6,742
13,31
20,127
26,303
31,268
34,754
36,748
37,573
37,519
36,772
35,647
34,531
33,689
33,296
33,417
33,986
34,963
36,336
38,071
40,142
42,526
45,202
48,166
51,418
54,935
58,68
62,605
66,662
70,821
75,071
79,418
83,879
88,461
93,172
98,013
102,975
108,057
113,26
118,572
123,986
129,51
135,156
140,963
146,974
153,206
159,655
166,297
173,104
180,066
187,179
194,436
201,824
209,328
216,934
224,642
232,447
240,328
248,245
256,146
263,975
271,698
279,307
286,798
294,164
301,385
308,439
315,316
322,017
328,542
334,886
341,044
347,014
352,824
358,514
364,118
369,656
375,125
380,509
385,792
390,962
396,007
400,908
405,628
410,123
414,355
418,282
421,845
424,968
427,541
429,453
430,618
430,974
430,481
429,107
426,812
423,564
419,346
414,149
407,977
400,837
392,728
383,676
373,745
363,029
351,66
339,769
327,459
314,825
301,956
288,939
275,869
262,838
249,923
237,209
224,796
212,785
201,282
190,363
180,056
170,366
161,266
152,728
144,736
137,273
130,314
123,843
117,844
112,303
107,213
102,538
98,212
94,169
90,338
86,673
83,157
79,791
76,59
73,577
70,781
68,226
65,934
63,908
62,13
60,573
59,204
58,013
57,015
56,226
55,657
55,308
55,165
55,203
55,39
55,676
55,997
56,298
56,531
56,676
56,738
56,735
56,696
56,638
56,562
56,471
56,362
56,236
56,096
55,946
55,796
55,668
55,601
55,626
55,766
56,024
56,389
56,834
57,325
57,831
58,328
58,796
59,22
59,592
59,907
60,16
60,351
60,47
60,501
60,43
60,246
59,946
59,535
59,022
58,424
57,756
57,033
56,265
55,462
54,627
53,763
52,868
51,941
50,981
49,99
48,972
47,931
46,869
45,789
44,69
43,573
42,438
41,283
40,109
38,917
37,708
36,484
35,249
34,007
32,761
31,516
30,272
29,033
27,801
26,576
25,36
24,154
22,96
21,779
20,612
19,461
18,328
17,215
16,124
15,055
14,011
12,993
12,003
11,041
10,108
9,205
8,333
7,492
6,682
5,902
5,153
4,433
3,741
3,075
2,434
1,816
1,218
0,637
0,07
-0,486
-1,033
-1,575
-2,116
-2,659
-3,208
-3,766
-4,337
-4,925
-5,534
-6,167
-6,83
-7,525
-8,256
-9,028
-9,844
-10,709
-11,625
-12,596
-13,625
-14,715
-15,868
-17,087
-18,372
-19,725
-21,146
-22,635
-24,191
-25,811
-27,492
-29,231
-31,023
-32,863
-34,747
-36,667
-38,618
-40,594
-42,588
-44,593
-46,603
-48,61
-50,603
-52,575
-54,515
-56,415
-58,263
-60,048
-61,757
-63,379
-64,906
-66,324
-67,622
-68,786
-69,801
-70,655
-71,339
-71,847
-72,174
-72,316
-72,276
-72,059
-71,677
-71,142
-70,461
-69,642
-68,686
-67,6
-66,394
-65,076
-63,655
-62,133
-60,505
-58,766
-56,909
-54,917
-52,766
-50,43
-47,869
-45,059
-41,99
-38,658
-35,069
-31,233
-27,158
-22,868
-18,393
-13,773
-9,06
-4,312
0,409
5,018
9,418
13,505
17,172
20,329
22,909
24,854
26,123
26,684
26,514
25,605
23,964
21,605
18,552
14,845
10,533
5,692
0,428
-5,151
-10,929
-16,795
-22,662
-28,444
-34,069
-39,476
-44,612
-49,428
-53,883
-57,936
-61,547
-64,694
-67,366
-69,584
-71,41
-72,914
-74,191
-75,335
-76,422
-77,536
-78,774
-80,221
-81,97
-84,115
-86,716
-89,883
-93,768
-98,429
-103,848
-109,857
-116,089
-122,199
-127,899
-132,815
-136,535
-138,764
-139,338
-138,554
-137,152
-135,737
-134,772
-134,585
-135,35
-137,223
-140,07
-142,84
-143,756
-140,993
-132,712
-117,531
-94,354
-61,781
-18,953
33,77
95,019
162,549
233,469
305,093
374,375
437,199
489,613
528,215
550,296
554,538
540,432
507,729
457,399
392,066
315,171
230,99
143,983
57,821
-23,675
-96,63
-158,134
-206,382
-240,73
-261,911
-271,077
-269,231
-258,372
-241,165
-220,221
-198,107
-176,673
-156,903
-139,863
-126,87
-118,342
-113,954
-113
-114,338
-117,119
-120,889
-124,83
-127,721
-128,859
-128,047
-125,419
-121,553
-116,904
-111,712
-106,474
-101,919
-98,495
-96,392
-95,595
-95,797
-96,724
-98,193
-99,902
-101,5
-102,744
-103,455
-103,546
-103,034
-101,927
-100,227
-97,975
-95,216
-91,992
-88,35
-84,331
-79,983
-75,364
-70,534
-65,559
-60,491
-55,376
-50,264
-45,191
-40,185
-35,263
-30,431
-25,692
-21,062
-16,547
-12,149
-7,862
-3,663
0,467
4,544
8,581
12,593
16,586
20,567
24,534
28,472
32,377
36,246
40,095
43,952
47,856
51,85
55,965
60,221
64,631
69,206
73,956
78,887
84,007
89,321
94,847
100,614
106,64
112,941
119,505
126,293
133,252
140,307
147,399
154,488
161,534
168,51
175,396
182,179
188,859
195,454
201,955
208,33
214,545
220,549
226,317
231,849
237,149
242,236
247,117
251,775
256,197
260,368
264,245
267,765
270,836
273,326
275,143
276,223
276,518
276,006
274,654
272,421
269,279
265,213
260,214
254,285
247,425
239,621
230,906
221,354
211,074
200,221
188,933
177,318
165,49
153,551
141,599
129,733
118,027
106,529
95,298
84,397
73,9
63,902
54,457
45,583
37,272
29,487
22,19
15,357
8,943
2,894
-2,829
-8,259
-13,407
-18,26
-22,822
-27,11
-31,147
-34,974
-38,612
-42,065
-45,332
-48,4
-51,254
-53,879
-56,243
-58,3
-60,023
-61,395
-62,414
-63,095
-63,446
-63,469
-63,17
-62,551
-61,619
-60,39
-58,877
-57,092
-55,056
-52,794
-50,34
-47,737
-45,019
-42,215
-39,35
-36,443
-33,513
-30,581
-27,664
-24,773
-21,924
-19,13
-16,407
-13,772
-11,235
-8,809
-6,499
-4,31
-2,248
-0,318
1,476
3,13
4,642
6,008
7,226
8,291
9,204
9,964
10,573
11,034
11,351
11,528
11,57
11,485
11,277
10,954
10,523
9,99
9,361
8,646
7,85
6,981
6,047
5,054
4,012
2,926
1,805
0,656
-0,515
-1,701
-2,894
-4,09
-5,281
-6,463
-7,63
-8,776
-9,898
-10,991
-12,051
-13,075
-14,061
-15,007
-15,911
-16,773
-17,591
-18,367
-19,101
-19,793
-20,443
-21,053
-21,623
-22,155
-22,65
-23,109
-23,533
-23,924
-24,283
-24,612
-24,912
-25,184
-25,432
-25,656
-25,858
-26,041
-26,205
-26,355
-26,49
-26,614
-26,729
-26,835
-26,936
-27,031
-27,123
-27,212
-27,299
-27,385
-27,468
-27,551
-27,631
-27,71
-27,788
-27,863
-27,937
-28,008
-28,078
-28,147
-28,214
-28,28
-28,347
-28,413
-28,482
-28,552
-28,626
-28,703
-28,785
-28,874
-28,968
-29,07
-29,179
-29,297
-29,424
-29,561
-29,709
-29,869
-30,041
-30,227
-30,428
-30,646
-30,883
-31,139
-31,417
-31,719
-32,046
-32,399
-32,781
-33,192
-33,635
-34,109
-34,617
-35,158
-35,733
-36,342
-36,985
-37,663
-38,374
-39,118
-39,895
-40,703
-41,543
-42,414
-43,315
-44,246
-45,206
-46,193
-47,209
-48,251
-49,319
-50,41
-51,524
-52,659
-53,813
-54,984
-56,169
-57,368
-58,577
-59,794
-61,016
-62,242
-63,469
-64,694
-65,914
-67,127
-68,33
-69,521
-70,698
-71,858
-72,999
-74,119
-75,215
-76,287
-77,329
-78,339
-79,315
-80,252
-81,146
-81,995
-82,793
-83,536
-84,222
-84,847
-85,408
-85,902
-86,326
-86,677
-86,952
-87,149
-87,263
-87,291
-87,227
-87,068
-86,812
-86,458
-86,002
-85,442
-84,776
-84,004
-83,127
-82,143
-81,052
-79,848
-78,526
-77,087
-75,536
-73,882
-72,131
-70,29
-68,366
-66,37
-64,317
-62,215
-60,069
-57,876
-55,63
-53,334
-50,997
-48,635
-46,267
-43,903
-41,544
-39,192
-36,854
-34,538
-32,25
-29,985
-27,732
-25,497
-23,301
-21,187
-19,196
-17,357
-15,689
-14,202
-12,911
-11,84
-11,014
-10,455
-10,177
-10,191
-10,518
-11,191
-12,248
-13,708
-15,563
-17,778
-20,324
-23,181
-26,335
-29,772
-33,463
-37,364
-41,432
-45,628
-49,921
-54,275
-58,639
-62,95
-67,138
-71,145
-74,935
-78,49
-81,784
-84,785
-87,467
-89,818
-91,863
-93,656
-95,248
-96,687
-98,006
-99,254
-100,509
-101,871
-103,449
-105,35
-107,643
-110,425
-113,853
-118,007
-122,874
-128,282
-133,84
-139,118
-143,775
-147,405
-149,555
-149,956
-148,551
-145,726
-142,374
-139,409
-137,555
-137,416
-139,458
-143,771
-149,876
-156,39
-161,052
-161,318
-154,767
-139,316
-113,076
-74,643
-23,657
38,977
111,021
189,165
269,728
348,96
422,571
486,22
536,242
569,625
584,532
580,465
557,36
515,787
457,694
385,853
303,622
215,051
123,943
33,79
-51,314
-127,522
-191,945
-242,342
-277,707
-298,196
-304,131
-296,524
-277,896
-251,332
-220,078
-187,518
-156,157
-127,952
-105,119
-89,232
-80,517
-78,417
-81,669
-88,547
-97,733
-107,951
-117,415
-124,553
-128,561
-129,211
-126,88
-122,304
-116,039
-108,646
-101,013
-94,005
-88,136
-83,606
-80,296
-77,9
-76,192
-74,984
-73,982
-72,885
-71,51
-69,779
-67,715
-65,405
-62,905
-60,251
-57,488
-54,664
-51,81
-48,943
-46,059
-43,14
-40,169
-37,121
-33,978
-30,725
-27,347
-23,831
-20,165
-16,337
-12,339
-8,16
-3,794
0,76
5,505
10,444
15,574
20,889
26,371
31,989
37,726
43,573
49,527
55,585
61,745
68,001
74,351
80,798
87,341
93,976
100,691
107,475
114,322
121,232
128,212
135,267
142,396
149,594
156,852
164,161
171,521
178,931
186,388
193,897
201,461
209,094
216,815
224,629
232,535
240,522
248,567
256,648
264,739
272,803
280,8
288,688
296,404
303,884
311,057
317,826
324,104
329,803
334,828
339,108
342,589
345,223
346,989
347,877
347,882
347,017
345,297
342,74
339,383
335,276
330,484
325,097
319,19
312,83
306,088
299,016
291,647
284,006
276,087
267,866
259,33
250,468
241,277
231,77
221,946
211,8
201,327
190,515
179,377
167,944
156,248
144,34
132,291
120,193
108,172
96,367
84,894
73,851
63,315
53,346
44,003
35,342
27,402
20,207
13,762
8,055
3,072
-1,221
-4,876
-7,975
-10,627
-12,948
-15,03
-16,946
-18,753
-20,498
-22,229
-23,983
-25,78
-27,63
-29,534
-31,491
-33,505
-35,569
-37,66
-39,743
-41,764
-43,678
-45,455
-47,075
-48,529
-49,811
-50,918
-51,854
-52,636
-53,284
-53,815
-54,245
-54,584
-54,846
-55,052
-55,226
-55,398
-55,589
-55,814
-56,086
-56,412
-56,8
-57,254
-57,772
-58,349
-58,979
-59,658
-60,384
-61,154
-61,967
-62,817
-63,698
-64,604
-65,528
-66,468
-67,417
-68,369
-69,319
-70,263
-71,197
-72,118
-73,021
-73,903
-74,758
-75,583
-76,372
-77,121
-77,827
-78,485
-79,09
-79,642
-80,135
-80,569
-80,94
-81,248
-81,49
-81,666
-81,773
-81,813
-81,784
-81,686
-81,52
-81,286
-80,985
-80,619
-80,189
-79,698
-79,146
-78,538
-77,877
-77,165
-76,406
-75,604
-74,763
-73,887
-72,981
-72,048
-71,094
-70,123
-69,14
-68,15
-67,158
-66,168
-65,186
-64,217
-63,266
-62,338
-61,437
-60,568
-59,736
-58,946
-58,201
-57,507
-56,867
-56,284
-55,763
-55,307
-54,917
-54,597
-54,349
-54,174
-54,073
-54,048
-54,097
-54,222
-54,422
-54,695
-55,041
-55,458
-55,944
-56,496
-57,112
-57,789
-58,523
-59,31
-60,147
-61,028
-61,948
-62,904
-63,889
-64,899
-65,928
-66,97
-68,02
-69,073
-70,123
-71,164
-72,193
-73,202
-74,188
-75,145
-76,07
-76,959
-77,809
-78,615
-79,377
-80,092
-80,759
-81,375
-81,942
-82,457
-82,922
-83,336
-83,701
-84,019
-84,29
-84,518
-84,704
-84,853
-84,968
-85,051
-85,108
-85,141
-85,154
-85,152
-85,137
-85,114
-85,086
-85,058
-85,032
-85,013
-85,004
-85,008
-85,029
-85,068
-85,128
-85,211
-85,316
-85,444
-85,596
-85,77
-85,967
-86,185
-86,422
-86,678
-86,95
-87,236
-87,534
-87,839
-88,149
-88,459
-88,766
-89,067
-89,357
-89,634
-89,894
-90,134
-90,354
-90,55
-90,721
-90,865
-90,98
-91,063
-91,113
-91,126
-91,101
-91,035
-90,927
-90,778
-90,587
-90,358
-90,094
-89,798
-89,474
-89,126
-88,758
-88,373
-87,973
-87,558
-87,132
-86,696
-86,257
-85,821
-85,393
-84,976
-84,57
-84,176
-83,789
-83,404
-83,007
-82,581
-82,117
-81,607
-81,052
-80,457
-79,826
-79,163
-78,476
-77,764
-77,031
-76,281
-75,511
-74,72
-73,914
-73,103
-72,314
-71,582
-70,924
-70,352
-69,87
-69,47
-69,147
-68,886
-68,655
-68,431
-68,189
-67,906
-67,572
-67,178
-66,705
-66,128
-65,402
-64,476
-63,316
-61,89
-60,171
-58,142
-55,781
-53,084
-50,08
-46,791
-43,246
-39,479
-35,509
-31,369
-27,101
-22,755
-18,395
-14,094
-9,918
-5,94
-2,242
1,099
3,989
6,353
8,143
9,306
9,803
9,609
8,701
7,074
4,742
1,719
-1,968
-6,276
-11,162
-16,559
-22,389
-28,571
-34,992
-41,544
-48,13
-54,643
-61,007
-67,157
-73,025
-78,562
-83,714
-88,431
-92,694
-96,478
-99,742
-102,518
-104,879
-106,975
-109,09
-111,467
-114,274
-117,727
-121,933
-126,811
-132,175
-137,528
-142,124
-145,345
-146,59
-145,299
-141,274
-134,619
-125,711
-115,541
-105,359
-96,354
-89,979
-87,487
-89,596
-96,674
-108,425
-123,748
-141,225
-158,959
-174,213
-184,211
-186,259
-177,791
-157,096
-123,014
-74,784
-12,864
60,942
143,989
232,566
322,471
409,692
489,691
557,864
610,553
644,919
659,273
653,475
627,946
583,717
523,286
449,874
367,076
279,021
189,354
101,177
18,114
-56,542
-120,434
-171,591
-209,172
-233,378
-244,327
-242,756
-230,809
-210,982
-186,062
-159,312
-133,09
-109,309
-90,249
-77,255
-70,493
-69,685
-73,724
-80,838
-89,753
-99,065
-106,887
-112,098
-114,185
-112,882
-108,611
-102,128
-93,969
-84,928
-76,084
-68,029
-61,088
-55,442
-50,888
-47,181
-44,146
-41,45
-38,687
-35,644
-32,226
-28,439
-24,425
-20,284
-16,077
-11,903
-7,853
-3,989
-0,341
3,103
6,378
9,495
12,449
15,23
17,826
20,244
22,502
24,629
26,663
28,642
30,609
32,607
34,671
36,831
39,098
41,473
43,961
46,575
49,33
52,254
55,374
58,726
62,354
66,298
70,596
75,274
80,344
85,818
91,71
98,033
104,805
112,036
119,722
127,854
136,414
145,366
154,67
164,255
174,029
183,902
193,793
203,632
213,373
222,964
232,355
241,495
250,337
258,844
267
274,788
282,192
289,216
295,873
302,208
308,297
314,2
319,953
325,579
331,069
336,414
341,612
346,65
351,51
356,165
360,568
364,68
368,469
371,886
374,866
377,314
379,098
380,111
380,28
379,547
377,89
375,292
371,732
367,206
361,724
355,302
347,968
339,742
330,633
320,658
309,865
298,328
286,169
273,499
260,409
246,983
233,291
219,398
205,378
191,295
177,203
163,162
149,24
135,514
122,089
109,072
96,557
84,615
73,283
62,583
52,544
43,188
34,535
26,6
19,39
12,911
7,171
2,166
-2,125
-5,732
-8,723
-11,179
-13,183
-14,823
-16,159
-17,239
-18,108
-18,799
-19,345
-19,771
-20,098
-20,347
-20,541
-20,698
-20,834
-20,958
-21,062
-21,123
-21,117
-21,008
-20,778
-20,419
-19,931
-19,321
-18,602
-17,789
-16,902
-15,967
-15,003
-14,028
-13,06
-12,111
-11,203
-10,359
-9,607
-8,975
-8,486
-8,156
-7,996
-8,015
-8,215
-8,596
-9,153
-9,878
-10,762
-11,799
-12,98
-14,302
-15,755
-17,329
-19,013
-20,796
-22,663
-24,605
-26,609
-28,661
-30,75
-32,866
-34,996
-37,131
-39,262
-41,377
-43,466
-45,517
-47,522
-49,469
-51,35
-53,156
-54,878
-56,509
-58,043
-59,476
-60,802
-62,02
-63,126
-64,118
-64,997
-65,763
-66,416
-66,959
-67,393
-67,722
-67,949
-68,079
-68,116
-68,066
-67,933
-67,725
-67,445
-67,102
-66,7
-66,247
-65,749
-65,212
-64,643
-64,049
-63,435
-62,808
-62,175
-61,54
-60,91
-60,29
-59,685
-59,099
-58,537
-58,002
-57,499
-57,029
-56,595
-56,199
-55,843
-55,528
-55,254
-55,021
-54,831
-54,682
-54,573
-54,504
-54,475
-54,483
-54,528
-54,608
-54,723
-54,87
-55,047
-55,254
-55,489
-55,75
-56,035
-56,344
-56,673
-57,023
-57,39
-57,775
-58,174
-58,588
-59,013
-59,45
-59,896
-60,351
-60,813
-61,282
-61,757
-62,237
-62,721
-63,21
-63,702
-64,198
-64,696
-65,196
-65,698
-66,2
-66,702
-67,203
-67,701
-68,196
-68,687
-69,171
-69,648
-70,116
-70,573
-71,017
-71,448
-71,862
-72,259
-72,636
-72,992
-73,324
-73,632
-73,914
-74,168
-74,392
-74,586
-74,747
-74,875
-74,968
-75,025
-75,044
-75,025
-74,968
-74,87
-74,734
-74,557
-74,342
-74,088
-73,797
-73,469
-73,108
-72,714
-72,291
-71,841
-71,368
-70,875
-70,365
-69,843
-69,313
-68,778
-68,244
-67,715
-67,196
-66,69
-66,202
-65,737
-65,299
-64,892
-64,519
-64,186
-63,895
-63,65
-63,456
-63,315
-63,229
-63,203
-63,237
-63,335
-63,496
-63,722
-64,012
-64,367
-64,784
-65,261
-65,794
-66,38
-67,014
-67,691
-68,404
-69,147
-69,913
-70,696
-71,489
-72,284
-73,073
-73,849
-74,6
-75,318
-75,994
-76,617
-77,179
-77,668
-78,075
-78,388
-78,6
-78,702
-78,682
-78,53
-78,231
-77,772
-77,15
-76,357
-75,393
-74,258
-72,954
-71,491
-69,884
-68,148
-66,297
-64,339
-62,28
-60,127
-57,895
-55,596
-53,252
-50,874
-48,462
-46,017
-43,537
-41,011
-38,427
-35,757
-32,957
-29,996
-26,856
-23,528
-20,027
-16,362
-12,54
-8,576
-4,486
-0,3
3,928
8,147
12,3
16,315
20,111
23,584
26,601
29,056
30,866
31,968
32,329
31,917
30,704
28,677
25,835
22,196
17,799
12,686
6,903
0,522
-6,369
-13,647
-21,161
-28,775
-36,368
-43,842
-51,119
-58,133
-64,827
-71,155
-77,071
-82,535
-87,5
-91,919
-95,775
-99,057
-101,754
-103,935
-105,735
-107,34
-109,031
-111,068
-113,623
-116,815
-120,701
-125,161
-129,976
-134,777
-138,975
-141,971
-143,199
-142,299
-139,19
-134,116
-127,563
-120,211
-112,993
-107,05
-103,735
-104,075
-108,611
-117,35
-129,665
-144,694
-161,242
-177,389
-190,502
-197,961
-197,268
-186,377
-164,078
-129,253
-81,198
-20,49
51,149
131,199
216,215
302,554
386,735
464,52
531,554
584,314
619,866
636,3
633,089
610,127
567,976
508,79
435,579
351,907
262,081
170,132
79,664
-5,199
-80,779
-144,501
-194,368
-229,651
-250,821
-258,456
-253,802
-239,418
-218,07
-192,589
-166,059
-140,597
-117,781
-99,426
-86,466
-78,76
-75,837
-76,59
-79,449
-83,38
-87,313
-89,794
-90,048
-87,847
-83,185
-76,648
-69,053
-60,964
-53,106
-46,388
-41,287
-38,032
-36,694
-37
-38,624
-41,295
-44,626
-48,187
-51,716
-55,043
-58,053
-60,721
-62,998
-64,826
-66,189
-67,087
-67,5
-67,391
-66,736
-65,526
-63,787
-61,571
-58,932
-55,915
-52,555
-48,882
-44,93
-40,74
-36,346
-31,767
-27,028
-22,151
-17,17
-12,127
-7,05
-1,943
3,196
8,381
13,623
18,93
24,314
29,792
35,378
41,083
46,917
52,878
58,975
65,218
71,623
78,214
85,001
91,986
99,164
106,526
114,059
121,744
129,557
137,459
145,417
153,402
161,392
169,368
177,308
185,185
192,967
200,622
208,127
215,469
222,634
229,613
236,406
243,019
249,474
255,807
262,037
268,175
274,217
280,144
285,942
291,595
297,085
302,392
307,479
312,304
316,825
320,996
324,762
328,058
330,79
332,858
334,18
334,695
334,364
333,168
331,087
328,111
324,236
319,467
313,825
307,335
300,016
291,89
282,993
273,37
263,111
252,318
241,076
229,464
217,545
205,37
192,999
180,495
167,914
155,31
142,741
130,266
117,969
105,943
94,27
83,023
72,241
61,941
52,152
42,895
34,195
26,077
18,548
11,604
5,244
-0,535
-5,755
-10,446
-14,67
-18,51
-22,036
-25,317
-28,402
-31,322
-34,114
-36,806
-39,423
-41,983
-44,496
-46,96
-49,383
-51,77
-54,115
-56,405
-58,609
-60,682
-62,589
-64,301
-65,799
-67,075
-68,124
-68,944
-69,541
-69,931
-70,129
-70,156
-70,028
-69,757
-69,361
-68,863
-68,29
-67,674
-67,041
-66,412
-65,805
-65,235
-64,714
-64,25
-63,849
-63,51
-63,235
-63,024
-62,878
-62,801
-62,793
-62,854
-62,983
-63,177
-63,433
-63,751
-64,128
-64,561
-65,047
-65,583
-66,165
-66,791
-67,457
-68,157
-68,885
-69,634
-70,398
-71,17
-71,942
-72,707
-73,457
-74,185
-74,885
-75,549
-76,173
-76,749
-77,272
-77,737
-78,141
-78,477
-78,742
-78,933
-79,046
-79,079
-79,028
-78,892
-78,67
-78,36
-77,962
-77,476
-76,902
-76,242
-75,498
-74,673
-73,769
-72,791
-71,743
-70,629
-69,455
-68,227
-66,95
-65,632
-64,278
-62,896
-61,492
-60,074
-58,649
-57,223
-55,803
-54,396
-53,009
-51,647
-50,318
-49,028
-47,782
-46,587
-45,448
-44,371
-43,36
-42,421
-41,557
-40,773
-40,071
-39,455
-38,928
-38,492
-38,147
-37,896
-37,738
-37,675
-37,705
-37,828
-38,042
-38,346
-38,737
-39,213
-39,771
-40,407
-41,119
-41,902
-42,753
-43,667
-44,641
-45,67
-46,749
-47,873
-49,038
-50,239
-51,47
-52,725
-54,001
-55,291
-56,591
-57,895
-59,199
-60,497
-61,785
-63,057
-64,311
-65,541
-66,742
-67,913
-69,048
-70,145
-71,201
-72,214
-73,183
-74,104
-74,977
-75,802
-76,576
-77,299
-77,971
-78,592
-79,16
-79,677
-80,142
-80,557
-80,924
-81,241
-81,513
-81,739
-81,923
-82,065
-82,167
-82,232
-82,26
-82,255
-82,219
-82,153
-82,06
-81,943
-81,801
-81,639
-81,457
-81,256
-81,036
-80,798
-80,541
-80,265
-79,968
-79,649
-79,307
-78,94
-78,547
-78,127
-77,678
-77,198
-76,686
-76,139
-75,555
-74,931
-74,262
-73,544
-72,772
-71,941
-71,048
-70,091
-69,064
-67,965
-66,791
-65,54
-64,211
-62,8
-61,303
-59,712
-58,022
-56,237
-54,36
-52,4
-50,365
-48,261
-46,097
-43,886
-41,637
-39,356
-37,041
-34,68
-32,271
-29,819
-27,334
-24,834
-22,332
-19,828
-17,325
-14,822
-12,319
-9,818
-7,311
-4,779
-2,222
0,345
2,891
5,364
7,727
9,952
12,018
13,915
15,626
17,126
18,398
19,421
20,168
20,613
20,713
20,412
19,682
18,512
16,915
14,936
12,606
9,953
7,01
3,798
0,341
-3,334
-7,204
-11,235
-15,375
-19,566
-23,724
-27,758
-31,592
-35,152
-38,386
-41,27
-43,776
-45,896
-47,636
-48,992
-49,97
-50,581
-50,843
-50,801
-50,519
-50,071
-49,572
-49,15
-48,94
-49,109
-49,787
-51,103
-53,226
-56,237
-60,139
-64,853
-70,124
-75,657
-81,186
-86,318
-90,582
-93,636
-95,226
-95,442
-94,877
-94,136
-93,83
-94,68
-97,26
-101,988
-109,016
-117,632
-126,108
-132,403
-134,104
-128,678
-113,926
-87,621
-48,035
5,226
71,121
147,411
230,654
316,78
401,433
479,383
545,473
595,305
625,437
634,073
620,858
586,303
532,067
461,383
378,239
287,313
193,556
100,933
13,031
-66,597
-135,221
-191,015
-232,853
-260,924
-276,156
-279,117
-270,939
-253,636
-229,418
-200,808
-170,4
-139,997
-111,136
-85,831
-65,653
-51,226
-42,543
-38,837
-38,902
-41,793
-46,504
-51,454
-55,102
-56,538
-55,379
-51,831
-46,476
-39,799
-32,318
-24,89
-18,434
-13,527
-10,434
-9,081
-9,159
-10,391
-12,511
-15,149
-17,903
-20,489
-22,74
-24,603
-26,106
-27,269
-28,09
-28,581
-28,762
-28,631
-28,17
-27,368
-26,22
-24,736
-22,954
-20,9
-18,597
-16,074
-13,353
-10,454
-7,394
-4,179
-0,806
2,712
6,359
10,114
13,949
17,852
21,824
25,87
30
34,227
38,561
43,02
47,624
52,385
57,314
62,417
67,697
73,166
78,839
84,731
90,858
97,225
103,829
110,664
117,717
124,969
132,392
139,957
147,633
155,392
163,217
171,085
178,971
186,847
194,674
202,419
210,056
217,565
224,927
232,131
239,171
246,052
252,798
259,432
265,961
272,383
278,674
284,808
290,766
296,533
302,094
307,432
312,516
317,309
321,782
325,899
329,609
332,841
335,49
337,448
338,639
339,009
338,526
337,182
334,952
331,811
327,745
322,749
316,825
309,981
302,207
293,489
283,851
273,354
262,099
250,218
237,812
224,962
211,74
198,209
184,447
170,549
156,591
142,643
128,792
115,133
101,792
88,919
76,621
64,963
53,975
43,653
34,004
25,051
16,805
9,267
2,427
-3,743
-9,26
-14,134
-18,41
-22,148
-25,444
-28,427
-31,193
-33,805
-36,313
-38,74
-41,114
-43,47
-45,825
-48,183
-50,546
-52,91
-55,279
-57,668
-60,066
-62,45
-64,778
-66,989
-69,041
-70,912
-72,584
-74,052
-75,313
-76,362
-77,21
-77,877
-78,381
-78,736
-78,954
-79,038
-79,001
-78,862
-78,643
-78,373
-78,07
-77,748
-77,417
-77,085
-76,756
-76,435
-76,117
-75,794
-75,46
-75,113
-74,749
-74,369
-73,971
-73,551
-73,107
-72,635
-72,134
-71,602
-71,038
-70,442
-69,813
-69,153
-68,464
-67,749
-67,011
-66,252
-65,475
-64,682
-63,878
-63,064
-62,245
-61,423
-60,604
-59,79
-58,987
-58,199
-57,432
-56,69
-55,979
-55,304
-54,668
-54,078
-53,536
-53,048
-52,617
-52,247
-51,94
-51,699
-51,526
-51,423
-51,392
-51,435
-51,551
-51,74
-52,003
-52,339
-52,747
-53,224
-53,769
-54,379
-55,051
-55,783
-56,569
-57,407
-58,292
-59,219
-60,184
-61,181
-62,206
-63,253
-64,316
-65,391
-66,472
-67,555
-68,633
-69,702
-70,757
-71,794
-72,808
-73,794
-74,749
-75,668
-76,549
-77,387
-78,18
-78,925
-79,62
-80,263
-80,852
-81,385
-81,861
-82,281
-82,643
-82,947
-83,193
-83,383
-83,517
-83,596
-83,622
-83,595
-83,519
-83,394
-83,223
-83,008
-82,752
-82,457
-82,126
-81,764
-81,372
-80,955
-80,515
-80,057
-79,584
-79,099
-78,606
-78,107
-77,607
-77,109
-76,615
-76,129
-75,654
-75,193
-74,749
-74,324
-73,92
-73,541
-73,188
-72,861
-72,564
-72,297
-72,06
-71,856
-71,685
-71,547
-71,442
-71,369
-71,327
-71,314
-71,328
-71,365
-71,421
-71,492
-71,574
-71,662
-71,751
-71,838
-71,917
-71,985
-72,037
-72,07
-72,076
-72,05
-71,985
-71,873
-71,708
-71,483
-71,189
-70,817
-70,363
-69,821
-69,187
-68,454
-67,617
-66,666
-65,594
-64,399
-63,081
-61,64
-60,079
-58,402
-56,619
-54,748
-52,804
-50,804
-48,758
-46,665
-44,531
-42,359
-40,155
-37,926
-35,673
-33,383
-31,053
-28,68
-26,26
-23,791
-21,26
-18,636
-15,901
-13,041
-10,058
-6,976
-3,816
-0,599
2,645
5,88
9,055
12,099
14,958
17,585
19,935
21,965
23,618
24,815
25,499
25,625
25,171
24,136
22,523
20,33
17,576
14,293
10,533
6,37
1,863
-2,942
-7,994
-13,24
-18,607
-24,004
-29,352
-34,59
-39,668
-44,546
-49,181
-53,523
-57,534
-61,185
-64,468
-67,384
-69,932
-72,109
-73,923
-75,395
-76,571
-77,502
-78,24
-78,846
-79,385
-79,937
-80,597
-81,447
-82,594
-84,189
-86,316
-88,995
-92,151
-95,54
-98,902
-102,028
-104,617
-106,315
-106,905
-106,287
-104,679
-102,772
-101,225
-100,58
-101,389
-104,017
-108,596
-115,023
-122,454
-129,157
-133,261
-132,78
-125,727
-110,554
-85,828
-50,438
-4,415
51,058
114,107
181,998
251,629
319,941
383,247
437,692
480,126
507,953
519,426
514
491,552
452,473
398,492
332,217
256,764
175,936
93,348
12,073
-64,38
-132,622
-190,14
-235,112
-266,78
-285,576
-292,1
-286,977
-271,993
-249,625
-222,48
-193,299
-164,16
-136,395
-111,523
-91,25
-76,257
-66,373
-60,923
-58,697
-58,743
-60,463
-62,824
-64,419
-64,446
-62,668
-59,237
-54,771
-49,754
-44,449
-39,4
-35,375
-32,834
-31,949
-32,646
-34,544
-37,313
-40,723
-44,439
-48,064
-51,286
-53,876
-55,717
-56,829
-57,234
-56,946
-56,001
-54,445
-52,334
-49,728
-46,689
-43,267
-39,514
-35,489
-31,251
-26,866
-22,406
-17,941
-13,521
-9,176
-4,921
-0,756
3,319
7,306
11,224
15,1
18,966
22,849
26,774
30,763
34,839
39,034
43,375
47,893
52,609
57,539
62,699
68,101
73,754
79,664
85,827
92,232
98,869
105,721
112,77
119,993
127,363
134,856
142,448
150,121
157,855
165,627
173,415
181,186
188,916
196,584
204,17
211,656
219,039
226,316
233,501
240,62
247,697
254,749
261,787
268,803
275,784
282,711
289,557
296,298
302,904
309,338
315,566
321,547
327,225
332,542
337,418
341,744
345,418
348,336
350,398
351,537
351,699
350,849
348,972
346,055
342,095
337,098
331,067
324,007
315,938
306,875
296,857
285,958
274,259
261,865
248,892
235,437
221,59
207,432
193,027
178,444
163,752
149,02
134,33
119,774
105,451
91,481
77,976
65,023
52,708
41,078
30,158
19,975
10,547
1,89
-5,976
-13,041
-19,305
-24,771
-29,462
-33,42
-36,7
-39,392
-41,592
-43,396
-44,904
-46,191
-47,308
-48,303
-49,21
-50,059
-50,879
-51,693
-52,515
-53,364
-54,247
-55,166
-56,114
-57,065
-57,984
-58,833
-59,565
-60,152
-60,58
-60,842
-60,942
-60,889
-60,694
-60,374
-59,951
-59,442
-58,865
-58,238
-57,574
-56,896
-56,231
-55,605
-55,049
-54,586
-54,23
-53,994
-53,885
-53,903
-54,05
-54,32
-54,706
-55,201
-55,8
-56,497
-57,289
-58,17
-59,133
-60,171
-61,275
-62,435
-63,646
-64,898
-66,183
-67,496
-68,828
-70,173
-71,527
-72,885
-74,238
-75,582
-76,909
-78,212
-79,487
-80,726
-81,923
-83,073
-84,172
-85,216
-86,201
-87,126
-87,987
-88,784
-89,516
-90,181
-90,779
-91,31
-91,776
-92,174
-92,508
-92,777
-92,983
-93,127
-93,211
-93,237
-93,208
-93,125
-92,99
-92,806
-92,575
-92,299
-91,981
-91,624
-91,229
-90,799
-90,337
-89,845
-89,327
-88,784
-88,218
-87,631
-87,025
-86,402
-85,763
-85,108
-84,438
-83,755
-83,059
-82,351
-81,63
-80,899
-80,156
-79,403
-78,639
-77,866
-77,083
-76,29
-75,488
-74,677
-73,856
-73,028
-72,192
-71,348
-70,499
-69,643
-68,782
-67,917
-67,048
-66,177
-65,305
-64,432
-63,561
-62,693
-61,83
-60,976
-60,132
-59,302
-58,489
-57,697
-56,928
-56,186
-55,474
-54,796
-54,155
-53,554
-52,996
-52,485
-52,024
-51,616
-51,265
-50,972
-50,742
-50,577
-50,477
-50,447
-50,487
-50,6
-50,787
-51,048
-51,385
-51,8
-52,292
-52,86
-53,505
-54,225
-55,017
-55,878
-56,803
-57,789
-58,828
-59,915
-61,045
-62,21
-63,406
-64,624
-65,86
-67,108
-68,361
-69,613
-70,857
-72,085
-73,287
-74,455
-75,581
-76,655
-77,667
-78,608
-79,47
-80,246
-80,929
-81,513
-81,987
-82,341
-82,566
-82,659
-82,616
-82,438
-82,127
-81,686
-81,125
-80,462
-79,712
-78,893
-78,013
-77,072
-76,072
-75,017
-73,911
-72,761
-71,565
-70,309
-68,987
-67,595
-66,129
-64,586
-62,949
-61,185
-59,271
-57,193
-54,95
-52,564
-50,054
-47,439
-44,75
-42,023
-39,311
-36,689
-34,213
-31,925
-29,874
-28,099
-26,661
-25,636
-25,081
-25,037
-25,53
-26,563
-28,145
-30,284
-32,96
-36,138
-39,759
-43,741
-48,019
-52,539
-57,234
-62,038
-66,868
-71,627
-76,24
-80,645
-84,783
-88,599
-92,025
-94,995
-97,47
-99,435
-100,902
-101,902
-102,463
-102,614
-102,406
-101,905
-101,202
-100,408
-99,617
-98,928
-98,431
-98,248
-98,569
-99,523
-101,16
-103,425
-106,086
-108,886
-111,635
-114,057
-115,787
-116,596
-116,346
-115,191
-113,794
-112,796
-112,69
-113,996
-117,013
-121,763
-128,097
-135,204
-141,379
-144,795
-143,524
-135,57
-119,471
-93,997
-58,1
-11,723
44,114
107,806
176,855
248,23
319,052
385,958
445,221
493,637
528,41
547,289
549,301
534,148
501,893
453,826
392,197
319,744
240,059
156,967
73,811
-5,843
-78,449
-141,309
-192,213
-229,67
-253,43
-263,769
-261,445
-248,347
-226,915
-199,699
-169,719
-139,786
-112,154
-89,052
-71,961
-61,207
-56,582
-57,315
-61,934
-68,907
-76,638
-83,222
-87,416
-88,74
-87,01
-82,56
-76,092
-68,311
-60,139
-52,712
-46,697
-42,355
-39,773
-38,732
-38,941
-40,153
-41,976
-43,934
-45,738
-47,234
-48,341
-49,077
-49,426
-49,329
-48,765
-47,752
-46,305
-44,441
-42,179
-39,527
-36,513
-33,18
-29,578
-25,757
-21,751
-17,581
-13,263
-8,819
-4,281
0,306
4,894
9,449
13,956
18,413
22,828
27,215
31,584
35,945
40,319
44,729
49,19
53,705
58,27
62,876
67,541
72,306
77,216
82,305
87,592
93,076
98,762
104,651
110,743
117,036
123,511
130,145
136,931
143,871
150,976
158,257
165,692
173,229
180,823
188,436
196,043
203,637
211,2
218,717
226,187
233,615
241,018
248,41
255,771
263,071
270,266
277,313
284,193
290,9
297,414
303,706
309,736
315,452
320,806
325,732
330,147
333,958
337,073
339,416
340,949
341,648
341,503
340,515
338,681
336
332,492
328,176
323,076
317,231
310,687
303,51
295,794
287,623
279,078
270,231
261,125
251,8
242,286
232,59
222,724
212,701
202,526
192,223
181,828
171,363
160,852
150,312
139,749
129,193
118,686
108,268
97,987
87,895
78,047
68,523
59,401
50,742
42,598
34,999
27,958
21,493
15,616
10,321
5,601
1,421
-2,271
-5,513
-8,344
-10,806
-12,942
-14,816
-16,492
-18,012
-19,411
-20,713
-21,936
-23,099
-24,221
-25,3
-26,332
-27,299
-28,174
-28,947
-29,61
-30,158
-30,585
-30,882
-31,04
-31,063
-30,962
-30,75
-30,437
-30,033
-29,547
-28,999
-28,41
-27,802
-27,2
-26,622
-26,08
-25,586
-25,15
-24,779
-24,48
-24,254
-24,097
-24,008
-23,985
-24,029
-24,138
-24,309
-24,536
-24,816
-25,144
-25,513
-25,922
-26,364
-26,835
-27,333
-27,852
-28,39
-28,946
-29,515
-30,094
-30,68
-31,268
-31,856
-32,441
-33,018
-33,585
-34,14
-34,682
-35,208
-35,717
-36,211
-36,687
-37,146
-37,589
-38,016
-38,428
-38,825
-39,209
-39,58
-39,94
-40,291
-40,633
-40,968
-41,297
-41,623
-41,946
-42,268
-42,59
-42,914
-43,241
-43,573
-43,91
-44,255
-44,607
-44,968
-45,339
-45,72
-46,111
-46,513
-46,925
-47,348
-47,78
-48,221
-48,671
-49,128
-49,591
-50,059
-50,53
-51,004
-51,479
-51,953
-52,426
-52,896
-53,362
-53,823
-54,278
-54,725
-55,164
-55,594
-56,014
-56,424
-56,823
-57,21
-57,586
-57,95
-58,303
-58,645
-58,976
-59,297
-59,609
-59,913
-60,21
-60,502
-60,789
-61,073
-61,356
-61,64
-61,927
-62,217
-62,513
-62,817
-63,13
-63,454
-63,789
-64,137
-64,5
-64,878
-65,271
-65,68
-66,106
-66,548
-67,006
-67,481
-67,97
-68,475
-68,993
-69,524
-70,066
-70,618
-71,178
-71,745
-72,315
-72,887
-73,459
-74,028
-74,592
-75,148
-75,694
-76,227
-76,745
-77,245
-77,726
-78,185
-78,62
-79,03
-79,414
-79,77
-80,098
-80,398
-80,67
-80,914
-81,132
-81,325
-81,495
-81,642
-81,769
-81,878
-81,971
-82,051
-82,119
-82,179
-82,234
-82,286
-82,34
-82,399
-82,464
-82,541
-82,631
-82,737
-82,862
-83,009
-83,18
-83,376
-83,6
-83,853
-84,137
-84,451
-84,796
-85,17
-85,572
-85,999
-86,449
-86,917
-87,399
-87,889
-88,382
-88,873
-89,356
-89,825
-90,276
-90,702
-91,097
-91,456
-91,772
-92,038
-92,247
-92,389
-92,456
-92,441
-92,336
-92,134
-91,829
-91,415
-90,888
-90,243
-89,478
-88,589
-87,569
-86,413
-85,116
-83,68
-82,107
-80,406
-78,59
-76,67
-74,658
-72,572
-70,426
-68,23
-65,99
-63,702
-61,365
-58,983
-56,566
-54,131
-51,698
-49,273
-46,865
-44,482
-42,122
-39,789
-37,481
-35,181
-32,887
-30,609
-28,369
-26,21
-24,181
-22,314
-20,635
-19,166
-17,921
-16,927
-16,203
-15,757
-15,606
-15,763
-16,252
-17,122
-18,405
-20,107
-22,22
-24,71
-27,527
-30,64
-34,013
-37,593
-41,326
-45,153
-49,026
-52,922
-56,828
-60,715
-64,519
-68,141
-71,482
-74,463
-77,051
-79,222
-80,924
-82,165
-83,01
-83,589
-84,167
-84,98
-86,077
-87,478
-89,199
-91,042
-92,864
-94,535
-95,572
-95,624
-94,662
-92,576
-89,481
-85,927
-82,191
-78,492
-75,53
-73,732
-73,338
-74,982
-78,835
-84,559
-92,165
-101,443
-111,665
-122,311
-132,462
-140,318
-144,285
-142,796
-133,878
-116,092
-88,328
-49,416
0,845
61,473
130,964
206,791
285,598
364,195
438,926
505,601
560,584
600,723
623,415
627,546
612,906
579,56
528,822
463,213
385,745
300,369
211,408
122,412
37,02
-40,87
-108,27
-163,037
-203,689
-230,246
-243,465
-243,934
-233,307
-214,265
-189,464
-161,709
-133,761
-107,398
-84,225
-66,215
-54,21
-48
-47,038
-50,129
-55,833
-63,173
-70,893
-77,215
-81,145
-82,351
-80,781
-76,986
-71,637
-65,155
-58,244
-51,897
-46,658
-42,761
-40,271
-38,897
-38,362
-38,506
-39,02
-39,534
-39,847
-39,839
-39,471
-38,816
-37,909
-36,761
-35,418
-33,926
-32,31
-30,595
-28,777
-26,843
-24,785
-22,591
-20,257
-17,782
-15,152
-12,365
-9,413
-6,291
-2,998
0,472
4,127
7,966
11,988
16,198
20,589
25,157
29,89
34,762
39,757
44,868
50,088
55,417
60,855
66,402
72,061
77,839
83,744
89,782
95,962
102,289
108,77
115,411
122,217
129,195
136,346
143,661
151,123
158,708
166,39
174,146
181,954
189,791
197,632
205,45
213,212
220,884
228,439
235,859
243,126
250,224
257,147
263,892
270,479
276,939
283,291
289,54
295,677
301,678
307,528
313,218
318,734
324,067
329,193
334,078
338,692
343,004
346,963
350,501
353,521
355,9
357,543
358,387
358,387
357,525
355,77
353,087
349,459
344,873
339,324
332,814
325,329
316,857
307,432
297,115
286,013
274,27
262,001
249,302
236,258
222,944
209,45
195,873
182,296
168,795
155,462
142,4
129,741
117,624
106,138
95,338
85,242
75,834
67,112
59,084
51,742
45,081
39,08
33,709
28,949
24,782
21,161
18,016
15,246
12,735
10,402
8,191
6,065
4,005
1,987
-0,013
-2
-3,976
-5,941
-7,892
-9,837
-11,786
-13,727
-15,637
-17,472
-19,184
-20,738
-22,119
-23,316
-24,328
-25,154
-25,801
-26,285
-26,63
-26,854
-26,976
-27,005
-26,952
-26,833
-26,668
-26,482
-26,302
-26,148
-26,034
-25,973
-25,973
-26,04
-26,176
-26,378
-26,641
-26,958
-27,327
-27,746
-28,213
-28,726
-29,279
-29,869
-30,491
-31,139
-31,811
-32,502
-33,207
-33,923
-34,646
-35,373
-36,102
-36,83
-37,554
-38,271
-38,976
-39,668
-40,343
-40,998
-41,63
-42,238
-42,82
-43,374
-43,899
-44,396
-44,865
-45,304
-45,715
-46,098
-46,456
-46,787
-47,095
-47,38
-47,644
-47,888
-48,114
-48,324
-48,519
-48,701
-48,873
-49,037
-49,195
-49,348
-49,501
-49,654
-49,811
-49,972
-50,141
-50,32
-50,509
-50,712
-50,928
-51,16
-51,408
-51,673
-51,956
-52,257
-52,575
-52,912
-53,266
-53,637
-54,025
-54,428
-54,847
-55,281
-55,729
-56,189
-56,662
-57,145
-57,639
-58,142
-58,653
-59,17
-59,693
-60,22
-60,75
-61,281
-61,812
-62,342
-62,87
-63,394
-63,913
-64,427
-64,934
-65,434
-65,927
-66,411
-66,887
-67,355
-67,815
-68,267
-68,711
-69,148
-69,578
-70,001
-70,418
-70,83
-71,236
-71,637
-72,034
-72,427
-72,816
-73,202
-73,584
-73,963
-74,339
-74,712
-75,083
-75,451
-75,816
-76,18
-76,541
-76,9
-77,257
-77,612
-77,966
-78,316
-78,665
-79,01
-79,351
-79,688
-80,019
-80,345
-80,663
-80,974
-81,276
-81,569
-81,851
-82,122
-82,38
-82,626
-82,858
-83,077
-83,281
-83,472
-83,65
-83,816
-83,97
-84,114
-84,249
-84,377
-84,498
-84,614
-84,726
-84,837
-84,946
-85,055
-85,166
-85,28
-85,399
-85,524
-85,657
-85,799
-85,951
-86,117
-86,297
-86,492
-86,705
-86,936
-87,188
-87,462
-87,759
-88,08
-88,426
-88,798
-89,194
-89,615
-90,057
-90,518
-90,995
-91,484
-91,982
-92,484
-92,985
-93,482
-93,97
-94,446
-94,906
-95,345
-95,759
-96,143
-96,491
-96,797
-97,056
-97,262
-97,407
-97,485
-97,489
-97,415
-97,257
-97,007
-96,658
-96,201
-95,628
-94,936
-94,122
-93,187
-92,133
-90,964
-89,688
-88,32
-86,872
-85,356
-83,784
-82,161
-80,494
-78,791
-77,057
-75,301
-73,527
-71,729
-69,898
-68,022
-66,086
-64,075
-61,971
-59,745
-57,378
-54,855
-52,173
-49,338
-46,36
-43,261
-40,061
-36,786
-33,474
-30,175
-26,949
-23,865
-20,99
-18,386
-16,121
-14,268
-12,89
-12,039
-11,751
-12,04
-12,915
-14,372
-16,403
-18,997
-22,126
-25,746
-29,799
-34,212
-38,914
-43,841
-48,917
-54,052
-59,162
-64,165
-68,993
-73,596
-77,925
-81,931
-85,563
-88,764
-91,488
-93,705
-95,399
-96,578
-97,256
-97,445
-97,18
-96,511
-95,507
-94,258
-92,863
-91,417
-90,032
-88,813
-87,896
-87,489
-87,736
-88,707
-90,361
-92,46
-94,731
-96,951
-98,803
-99,876
-99,896
-98,698
-96,458
-93,923
-91,856
-90,927
-91,852
-95,113
-100,909
-109,171
-118,983
-128,383
-135,164
-136,871
-130,958
-115,394
-88,311
-48,239
4,928
69,964
144,759
226,085
310,192
393,295
470,846
538,154
591,387
627,381
644,024
640,61
616,955
573,663
512,999
438,18
353,008
261,968
169,206
78,446
-6,098
-80,708
-142,822
-190,651
-223,779
-242,903
-248,765
-242,617
-226,874
-204,264
-177,636
-149,859
-122,76
-97,714
-76,372
-59,965
-49,039
-43,524
-42,546
-44,897
-49,843
-56,569
-63,881
-70,589
-75,511
-78,004
-78,198
-76,468
-73,122
-68,571
-63,34
-58,092
-53,668
-50,553
-48,787
-48,259
-48,731
-49,962
-51,769
-53,881
-55,946
-57,744
-59,165
-60,174
-60,83
-61,16
-61,153
-60,815
-60,141
-59,134
-57,812
-56,189
-54,274
-52,085
-49,641
-46,96
-44,066
-40,983
-37,734
-34,336
-30,791
-27,108
-23,303
-19,4
-15,435
-11,43
-7,385
-3,296
0,846
5,052
9,328
13,687
18,149
22,732
27,449
32,309
37,316
42,479
47,817
53,35
59,103
65,088
71,31
77,77
84,461
91,374
98,496
105,799
113,257
120,845
128,543
136,338
144,213
152,145
160,108
168,068
175,992
183,858
191,648
199,342
206,928
214,401
221,766
229,046
236,257
243,402
250,475
257,454
264,312
271,026
277,572
283,924
290,059
295,938
301,518
306,764
311,627
316,049
319,963
323,273
325,885
327,731
328,753
328,917
328,206
326,601
324,097
320,7
316,413
311,247
305,227
298,364
290,683
282,215
272,999
263,105
252,623
241,63
230,202
218,406
206,293
193,918
181,335
168,586
155,726
142,814
129,907
117,078
104,411
91,989
79,91
68,256
57,074
46,408
36,295
26,76
17,839
9,561
1,942
-5
-11,257
-16,838
-21,75
-26,02
-29,697
-32,845
-35,552
-37,91
-39,982
-41,821
-43,471
-44,963
-46,333
-47,613
-48,819
-49,968
-51,076
-52,149
-53,202
-54,24
-55,254
-56,221
-57,106
-57,865
-58,471
-58,91
-59,174
-59,264
-59,183
-58,936
-58,541
-58,018
-57,384
-56,656
-55,846
-54,964
-54,028
-53,059
-52,082
-51,127
-50,214
-49,36
-48,577
-47,875
-47,26
-46,736
-46,301
-45,95
-45,679
-45,486
-45,37
-45,331
-45,366
-45,473
-45,647
-45,883
-46,178
-46,528
-46,928
-47,372
-47,859
-48,383
-48,942
-49,535
-50,158
-50,807
-51,481
-52,175
-52,885
-53,608
-54,341
-55,08
-55,821
-56,561
-57,299
-58,031
-58,756
-59,473
-60,179
-60,874
-61,556
-62,225
-62,879
-63,518
-64,141
-64,747
-65,336
-65,906
-66,458
-66,99
-67,503
-67,995
-68,467
-68,917
-69,346
-69,751
-70,134
-70,493
-70,828
-71,138
-71,422
-71,681
-71,913
-72,12
-72,3
-72,453
-72,58
-72,681
-72,754
-72,8
-72,82
-72,812
-72,778
-72,717
-72,63
-72,516
-72,378
-72,215
-72,029
-71,819
-71,588
-71,336
-71,066
-70,778
-70,475
-70,158
-69,83
-69,493
-69,149
-68,8
-68,449
-68,098
-67,75
-67,406
-67,068
-66,738
-66,418
-66,109
-65,814
-65,533
-65,268
-65,02
-64,789
-64,576
-64,381
-64,205
-64,048
-63,91
-63,79
-63,688
-63,603
-63,535
-63,481
-63,441
-63,413
-63,396
-63,385
-63,381
-63,379
-63,377
-63,372
-63,362
-63,345
-63,317
-63,276
-63,22
-63,146
-63,052
-62,937
-62,797
-62,633
-62,441
-62,221
-61,972
-61,694
-61,385
-61,048
-60,681
-60,284
-59,86
-59,408
-58,93
-58,427
-57,9
-57,351
-56,782
-56,196
-55,595
-54,983
-54,362
-53,736
-53,108
-52,481
-51,859
-51,245
-50,642
-50,052
-49,478
-48,924
-48,393
-47,886
-47,408
-46,96
-46,546
-46,166
-45,823
-45,518
-45,252
-45,026
-44,84
-44,693
-44,588
-44,523
-44,497
-44,512
-44,567
-44,661
-44,792
-44,961
-45,166
-45,403
-45,672
-45,968
-46,289
-46,632
-46,993
-47,371
-47,763
-48,168
-48,585
-49,012
-49,45
-49,896
-50,346
-50,798
-51,248
-51,693
-52,126
-52,544
-52,945
-53,327
-53,693
-54,047
-54,385
-54,701
-54,987
-55,232
-55,423
-55,553
-55,605
-55,57
-55,44
-55,215
-54,906
-54,523
-54,071
-53,547
-52,94
-52,237
-51,438
-50,551
-49,585
-48,56
-47,496
-46,419
-45,373
-44,397
-43,51
-42,715
-41,993
-41,309
-40,646
-40
-39,366
-38,748
-38,132
-37,491
-36,803
-36,034
-35,138
-34,055
-32,7
-30,99
-28,882
-26,363
-23,453
-20,202
-16,642
-12,8
-8,713
-4,421
0,023
4,552
9,103
13,603
17,953
22,029
25,688
28,786
31,222
32,933
33,889
34,085
33,519
32,184
30,097
27,283
23,774
19,612
14,845
9,527
3,75
-2,361
-8,668
-15,028
-21,325
-27,469
-33,385
-39,014
-44,3
-49,189
-53,634
-57,596
-61,039
-63,929
-66,24
-67,972
-69,154
-69,854
-70,159
-70,151
-69,914
-69,541
-69,124
-68,769
-68,591
-68,68
-69,16
-70,204
-71,929
-74,392
-77,541
-81,121
-84,824
-88,356
-91,317
-93,253
-93,844
-92,9
-90,608
-87,702
-84,959
-83,129
-83,007
-85,18
-89,991
-97,429
-106,546
-115,348
-121,535
-122,51
-115,628
-98,688
-69,589
-26,814
29,618
98,247
176,588
261,007
347,422
431,67
508,816
574,057
623,711
654,971
666,294
657,576
629,154
582,153
519,29
443,905
359,643
270,612
180,371
92,102
9,6
-63,821
-125,913
-174,849
-209,934
-231,434
-239,505
-235,071
-220,522
-198,488
-171,747
-143,415
-115,688
-90,395
-69,758
-55,015
-46,177
-42,847
-43,91
-47,726
-53,188
-59,04
-63,517
-65,608
-64,945
-61,431
-55,617
-48,305
-40,031
-31,559
-23,922
-17,681
-13,11
-10,318
-9,046
-9
-9,968
-11,585
-13,408
-15,174
-16,721
-17,961
-18,923
-19,605
-19,976
-20,052
-19,868
-19,445
-18,785
-17,877
-16,687
-15,199
-13,422
-11,383
-9,107
-6,615
-3,918
-1,024
2,048
5,28
8,662
12,185
15,849
19,654
23,593
27,653
31,823
36,081
40,419
44,84
49,349
53,954
58,662
63,48
68,416
73,487
78,705
84,084
89,635
95,365
101,28
107,388
113,697
120,212
126,932
133,845
140,931
148,167
155,533
163,007
170,573
178,206
185,881
193,57
201,24
208,864
216,423
223,897
231,272
238,537
245,691
252,743
259,719
266,641
273,518
280,349
287,112
293,784
300,342
306,762
313,022
319,098
324,946
330,52
335,776
340,662
345,116
349,058
352,375
354,956
356,715
357,589
357,541
356,554
354,61
351,692
347,792
342,913
337,069
330,281
322,559
313,917
304,383
294,016
282,921
271,221
259,021
246,408
233,45
220,208
206,748
193,148
179,475
165,79
152,158
138,653
125,371
112,426
99,923
87,928
76,473
65,56
55,2
45,413
36,22
27,637
19,666
12,297
5,527
-0,647
-6,24
-11,287
-15,852
-20,027
-23,896
-27,517
-30,931
-34,158
-37,221
-40,146
-42,954
-45,656
-48,253
-50,746
-53,14
-55,45
-57,677
-59,811
-61,824
-63,674
-65,325
-66,758
-67,963
-68,94
-69,69
-70,215
-70,528
-70,65
-70,603
-70,409
-70,085
-69,643
-69,099
-68,474
-67,796
-67,095
-66,395
-65,716
-65,074
-64,481
-63,948
-63,482
-63,088
-62,762
-62,503
-62,309
-62,181
-62,12
-62,126
-62,196
-62,327
-62,514
-62,756
-63,049
-63,389
-63,774
-64,198
-64,659
-65,155
-65,682
-66,238
-66,82
-67,423
-68,044
-68,678
-69,323
-69,973
-70,625
-71,275
-71,921
-72,559
-73,187
-73,803
-74,405
-74,991
-75,561
-76,113
-76,647
-77,162
-77,658
-78,135
-78,593
-79,033
-79,454
-79,857
-80,242
-80,611
-80,964
-81,302
-81,626
-81,937
-82,235
-82,522
-82,798
-83,064
-83,32
-83,568
-83,807
-84,039
-84,264
-84,482
-84,694
-84,899
-85,097
-85,288
-85,472
-85,649
-85,818
-85,978
-86,128
-86,269
-86,399
-86,517
-86,623
-86,715
-86,792
-86,854
-86,899
-86,926
-86,935
-86,924
-86,893
-86,841
-86,768
-86,673
-86,555
-86,416
-86,254
-86,07
-85,864
-85,637
-85,388
-85,119
-84,831
-84,523
-84,198
-83,857
-83,499
-83,127
-82,741
-82,343
-81,934
-81,516
-81,09
-80,657
-80,22
-79,78
-79,34
-78,9
-78,464
-78,032
-77,606
-77,188
-76,781
-76,384
-76,001
-75,632
-75,278
-74,941
-74,622
-74,321
-74,039
-73,777
-73,535
-73,312
-73,11
-72,928
-72,767
-72,627
-72,508
-72,411
-72,336
-72,283
-72,253
-72,245
-72,259
-72,295
-72,353
-72,43
-72,528
-72,644
-72,779
-72,931
-73,1
-73,285
-73,484
-73,696
-73,921
-74,158
-74,404
-74,659
-74,922
-75,192
-75,468
-75,75
-76,037
-76,327
-76,621
-76,916
-77,211
-77,502
-77,787
-78,063
-78,325
-78,572
-78,798
-79,002
-79,18
-79,329
-79,448
-79,535
-79,587
-79,601
-79,574
-79,502
-79,381
-79,206
-78,973
-78,678
-78,315
-77,88
-77,372
-76,786
-76,12
-75,369
-74,525
-73,585
-72,546
-71,409
-70,175
-68,85
-67,438
-65,949
-64,399
-62,805
-61,182
-59,542
-57,891
-56,231
-54,568
-52,907
-51,253
-49,608
-47,961
-46,3
-44,617
-42,899
-41,137
-39,317
-37,407
-35,382
-33,226
-30,93
-28,503
-25,962
-23,324
-20,612
-17,859
-15,108
-12,42
-9,867
-7,506
-5,395
-3,589
-2,145
-1,138
-0,635
-0,68
-1,31
-2,54
-4,371
-6,802
-9,826
-13,407
-17,5
-22,039
-26,941
-32,141
-37,568
-43,148
-48,805
-54,447
-59,991
-65,37
-70,528
-75,411
-79,968
-84,154
-87,929
-91,29
-94,242
-96,793
-98,942
-100,683
-102,032
-103,036
-103,778
-104,316
-104,646
-104,813
-104,946
-105,273
-106,057
-107,438
-109,35
-111,728
-114,673
-118,197
-122,105
-125,865
-128,636
-129,843
-129,442
-127,552
-124,085
-119,026
-112,607
-105,722
-99,988
-96,728
-96,437
-99,089
-104,627
-112,876
-123,289
-134,307
-143,169
-146,926
-143,291
-130,687
-107,486
-72,322
-24,526
35,672
105,277
180,203
257,98
335,223
410,046
480,635
539,522
580,934
599,291
589,33
554,882
500,096
429,446
350,055
263,75
172,938
81,867
-6,866
-88,545
-158,751
-215,435
-257,263
-284,42
-298,329
-300,311
-291,713
-274,491
-250,971
-223,606
-194,717
-165,891
-138,17
-112,704
-90,909
-73,816
-61,693
-54,126
-50,302
-49,601
-51,515
-55,209
-59,343
-62,556
-64,086
-63,799
-61,96
-58,866
-54,751
-49,983
-45,259
-41,414
-38,928
-37,886
-38,106
-39,283
-41,164
-43,528
-46,037
-48,259
-49,886
-50,767
-50,87
-50,272
-49,037
-47,188
-44,774
-41,871
-38,552
-34,891
-30,949
-26,758
-22,361
-17,809
-13,156
-8,468
-3,814
0,768
5,255
9,64
13,929
18,123
22,229
26,264
30,256
34,231
38,22
42,243
46,32
50,474
54,729
59,117
63,668
68,405
73,342
78,49
83,855
89,445
95,265
101,317
107,597
114,102
120,824
127,755
134,887
142,204
149,689
157,313
165,047
172,862
180,732
188,629
196,531
204,41
212,237
219,988
227,635
235,157
242,539
249,765
256,824
263,717
270,443
277,009
283,431
289,709
295,842
301,823
307,634
313,258
318,675
323,848
328,745
333,331
337,556
341,369
344,718
347,528
349,738
351,289
352,11
352,152
351,375
349,741
347,234
343,85
339,595
334,499
328,587
321,886
314,442
306,304
297,528
288,191
278,344
268,031
257,317
246,26
234,921
223,369
211,654
199,814
187,889
175,911
163,92
151,969
140,096
128,338
116,741
105,348
94,235
83,489
73,171
63,333
54,01
45,226
37,016
29,417
22,452
16,13
10,451
5,403
0,976
-2,843
-6,088
-8,81
-11,091
-13,022
-14,668
-16,085
-17,314
-18,393
-19,362
-20,26
-21,11
-21,927
-22,718
-23,494
-24,269
-25,052
-25,838
-26,606
-27,32
-27,948
-28,471
-28,881
-29,177
-29,359
-29,427
-29,389
-29,262
-29,066
-28,819
-28,532
-28,216
-27,88
-27,54
-27,218
-26,939
-26,721
-26,575
-26,512
-26,536
-26,652
-26,86
-27,158
-27,536
-27,987
-28,504
-29,081
-29,716
-30,403
-31,135
-31,905
-32,705
-33,527
-34,366
-35,216
-36,069
-36,919
-37,761
-38,59
-39,403
-40,195
-40,963
-41,702
-42,407
-43,076
-43,704
-44,29
-44,83
-45,322
-45,766
-46,162
-46,509
-46,81
-47,065
-47,276
-47,446
-47,578
-47,674
-47,739
-47,774
-47,785
-47,774
-47,746
-47,704
-47,652
-47,594
-47,534
-47,474
-47,42
-47,373
-47,338
-47,316
-47,312
-47,328
-47,367
-47,43
-47,519
-47,637
-47,785
-47,963
-48,173
-48,414
-48,687
-48,992
-49,326
-49,69
-50,081
-50,497
-50,937
-51,398
-51,877
-52,371
-52,878
-53,393
-53,914
-54,438
-54,96
-55,479
-55,99
-56,492
-56,981
-57,454
-57,909
-58,344
-58,756
-59,144
-59,505
-59,839
-60,143
-60,417
-60,66
-60,87
-61,049
-61,195
-61,308
-61,389
-61,438
-61,455
-61,443
-61,402
-61,335
-61,243
-61,129
-60,996
-60,847
-60,686
-60,517
-60,343
-60,167
-59,995
-59,828
-59,671
-59,528
-59,403
-59,297
-59,216
-59,161
-59,137
-59,145
-59,19
-59,272
-59,395
-59,561
-59,771
-60,027
-60,332
-60,686
-61,091
-61,549
-62,059
-62,622
-63,238
-63,907
-64,626
-65,394
-66,206
-67,059
-67,949
-68,871
-69,821
-70,793
-71,782
-72,783
-73,792
-74,804
-75,813
-76,814
-77,799
-78,761
-79,693
-80,586
-81,433
-82,226
-82,956
-83,615
-84,197
-84,695
-85,103
-85,411
-85,609
-85,688
-85,644
-85,473
-85,175
-84,75
-84,202
-83,538
-82,772
-81,916
-80,983
-79,984
-78,918
-77,787
-76,595
-75,344
-74,042
-72,689
-71,274
-69,786
-68,215
-66,55
-64,78
-62,892
-60,852
-58,637
-56,234
-53,636
-50,86
-47,927
-44,857
-41,673
-38,409
-35,106
-31,827
-28,643
-25,609
-22,783
-20,221
-17,982
-16,149
-14,789
-13,951
-13,666
-13,943
-14,78
-16,178
-18,132
-20,618
-23,596
-27,006
-30,774
-34,838
-39,14
-43,614
-48,182
-52,748
-57,223
-61,539
-65,647
-69,509
-73,087
-76,34
-79,219
-81,696
-83,76
-85,412
-86,668
-87,548
-88,073
-88,285
-88,252
-88,044
-87,737
-87,408
-87,119
-86,941
-86,96
-87,24
-87,894
-89,062
-90,815
-93,172
-96,037
-99,15
-102,255
-105,115
-107,387
-108,702
-108,77
-107,409
-104,882
-101,859
-98,979
-96,861
-95,993
-96,692
-99,292
-103,815
-109,345
-114,253
-116,64
-114,395
-105,861
-89,646
-64,053
-27,967
18,499
74,215
136,976
203,748
271,717
337,723
397,576
447,328
483,616
503,764
506,605
491,945
459,756
411,125
348,709
275,724
196,138
114,178
33,165
-43,628
-112,683
-171,349
-217,934
-251,352
-271,81
-280,128
-276,809
-263,279
-241,875
-214,88
-184,77
-154,076
-124,517
-97,741
-75,787
-59,625
-49,258
-44,4
-44,064
-46,927
-52,004
-57,953
-62,964
-66,019
-66,741
-65,024
-61,348
-56,348
-50,472
-44,476
-39,37
-35,705
-33,711
-33,394
-34,418
-36,443
-39,217
-42,355
-45,412
-48,081
-50,156
-51,541
-52,28
-52,401
-51,915
-50,861
-49,283
-47,226
-44,745
-41,891
-38,701
-35,223
-31,516
-27,641
-23,663
-19,656
-15,675
-11,759
-7,928
-4,192
-0,553
2,987
6,433
9,804
13,123
16,417
19,712
23,03
26,395
29,837
33,39
37,088
40,956
45,015
49,279
53,762
58,48
63,443
68,657
74,115
79,814
85,742
91,891
98,247
104,785
111,48
118,309
125,247
132,279
139,387
146,548
153,738
160,926
168,085
175,199
182,257
189,25
196,173
203,032
209,84
216,632
223,439
230,279
237,16
244,07
250,992
257,911
264,806
271,654
278,426
285,076
291,548
297,787
303,729
309,293
314,388
318,89
322,673
325,636
327,697
328,797
328,898
327,963
325,975
322,93
318,833
313,706
307,583
300,494
292,477
283,587
273,886
263,474
252,465
240,957
229,044
216,806
204,311
191,628
178,817
165,927
153,003
140,094
127,246
114,521
101,988
89,716
77,782
66,242
55,142
44,525
34,425
24,875
15,904
7,537
-0,206
-7,301
-13,73
-19,487
-24,575
-29,015
-32,843
-36,112
-38,892
-41,257
-43,282
-45,032
-46,557
-47,899
-49,096
-50,179
-51,176
-52,11
-53,004
-53,874
-54,732
-55,584
-56,431
-57,258
-58,04
-58,742
-59,327
-59,77
-60,057
-60,181
-60,145
-59,953
-59,615
-59,144
-58,559
-57,875
-57,106
-56,264
-55,362
-54,417
-53,451
-52,487
-51,552
-50,667
-49,845
-49,097
-48,429
-47,844
-47,345
-46,926
-46,583
-46,31
-46,105
-45,965
-45,89
-45,876
-45,92
-46,018
-46,163
-46,352
-46,579
-46,84
-47,13
-47,445
-47,781
-48,136
-48,508
-48,894
-49,291
-49,696
-50,106
-50,517
-50,928
-51,335
-51,735
-52,126
-52,506
-52,874
-53,23
-53,573
-53,903
-54,22
-54,525
-54,816
-55,096
-55,363
-55,619
-55,863
-56,096
-56,319
-56,531
-56,734
-56,928
-57,114
-57,292
-57,464
-57,631
-57,792
-57,948
-58,1
-58,247
-58,392
-58,533
-58,672
-58,808
-58,942
-59,075
-59,207
-59,337
-59,467
-59,595
-59,722
-59,847
-59,971
-60,092
-60,212
-60,329
-60,445
-60,559
-60,67
-60,78
-60,888
-60,994
-61,098
-61,2
-61,3
-61,398
-61,493
-61,587
-61,679
-61,77
-61,86
-61,949
-62,038
-62,128
-62,217
-62,307
-62,398
-62,49
-62,583
-62,677
-62,772
-62,87
-62,968
-63,069
-63,17
-63,273
-63,376
-63,48
-63,584
-63,687
-63,789
-63,889
-63,987
-64,082
-64,174
-64,264
-64,35
-64,432
-64,509
-64,582
-64,65
-64,712
-64,768
-64,817
-64,858
-64,891
-64,915
-64,931
-64,937
-64,935
-64,924
-64,903
-64,874
-64,835
-64,788
-64,734
-64,672
-64,604
-64,531
-64,455
-64,377
-64,298
-64,221
-64,147
-64,078
-64,014
-63,958
-63,911
-63,874
-63,849
-63,836
-63,837
-63,853
-63,886
-63,938
-64,009
-64,101
-64,214
-64,35
-64,509
-64,692
-64,898
-65,129
-65,383
-65,661
-65,963
-66,286
-66,629
-66,991
-67,37
-67,762
-68,163
-68,571
-68,98
-69,387
-69,786
-70,173
-70,543
-70,889
-71,209
-71,497
-71,749
-71,96
-72,124
-72,238
-72,297
-72,295
-72,228
-72,088
-71,869
-71,567
-71,175
-70,69
-70,108
-69,424
-68,635
-67,737
-66,732
-65,617
-64,392
-63,051
-61,591
-60,013
-58,323
-56,531
-54,648
-52,68
-50,638
-48,533
-46,383
-44,198
-41,986
-39,744
-37,469
-35,167
-32,85
-30,538
-28,252
-26,004
-23,798
-21,639
-19,535
-17,496
-15,525
-13,617
-11,76
-9,956
-8,229
-6,62
-5,171
-3,907
-2,844
-1,988
-1,348
-0,938
-0,773
-0,863
-1,212
-1,828
-2,731
-3,958
-5,55
-7,521
-9,859
-12,516
-15,45
-18,624
-21,998
-25,534
-29,186
-32,901
-36,638
-40,36
-44,032
-47,608
-51,016
-54,167
-56,979
-59,388
-61,362
-62,913
-64,056
-64,82
-65,256
-65,409
-65,349
-65,171
-64,957
-64,798
-64,796
-65,032
-65,65
-66,857
-68,778
-71,447
-74,751
-78,354
-81,915
-85,163
-87,724
-89,18
-89,262
-87,893
-85,459
-82,849
-80,943
-80,431
-81,841
-85,522
-91,509
-99,339
-107,649
-114,217
-116,525
-112,152
-99,108
-75,675
-40,52
6,797
65,561
133,803
208,466
286,035
362,99
435,375
499,05
550,357
586,133
604,223
603,841
584,774
547,413
493,441
425,448
346,718
261,347
173,335
86,259
4,091
-69,464
-131,636
-180,307
-214,58
-234,791
-241,521
-235,852
-220,119
-197,114
-169,743
-141,073
-113,347
-88,195
-67,447
-52,452
-43,444
-40,015
-41,138
-45,305
-51,378
-58,328
-64,685
-69,125
-70,95
-69,928
-66,375
-60,989
-54,321
-46,905
-39,55
-33,039
-27,855
-24,22
-22,055
-21,073
-21,025
-21,668
-22,673
-23,723
-24,615
-25,244
-25,584
-25,657
-25,466
-25,011
-24,309
-23,382
-22,232
-20,829
-19,147
-17,182
-14,948
-12,483
-9,816
-6,954
-3,902
-0,671
2,716
6,229
9,847
13,568
17,389
21,302
25,288
29,311
33,343
37,382
41,437
45,515
49,619
53,746
57,885
62,056
66,296
70,639
75,118
79,751
84,54
89,501
94,652
100,015
105,611
111,44
117,485
123,741
130,212
136,905
143,837
150,99
158,318
165,778
173,326
180,931
188,578
196,244
203,902
211,534
219,13
226,696
234,261
241,831
249,397
256,939
264,415
271,805
279,109
286,317
293,414
300,373
307,155
313,723
320,041
326,055
331,697
336,874
341,476
345,409
348,592
350,964
352,487
353,118
352,814
351,548
349,304
346,078
341,875
336,696
330,543
323,445
315,445
306,615
297,047
286,821
276,027
264,745
253,041
240,99
228,665
216,127
203,434
190,646
177,824
165,047
152,401
139,953
127,764
115,876
104,32
93,139
82,36
72,007
62,103
52,663
43,697
35,222
27,254
19,792
12,83
6,338
0,269
-5,406
-10,717
-15,691
-20,348
-24,724
-28,845
-32,725
-36,378
-39,811
-43,029
-46,047
-48,875
-51,512
-53,954
-56,186
-58,18
-59,924
-61,411
-62,635
-63,594
-64,282
-64,698
-64,853
-64,762
-64,444
-63,917
-63,196
-62,298
-61,246
-60,066
-58,787
-57,443
-56,058
-54,654
-53,253
-51,872
-50,53
-49,242
-48,018
-46,862
-45,781
-44,781
-43,866
-43,044
-42,317
-41,684
-41,145
-40,7
-40,348
-40,089
-39,92
-39,84
-39,847
-39,94
-40,117
-40,375
-40,713
-41,126
-41,611
-42,162
-42,774
-43,442
-44,16
-44,924
-45,726
-46,563
-47,428
-48,317
-49,226
-50,149
-51,082
-52,021
-52,963
-53,905
-54,843
-55,775
-56,699
-57,613
-58,514
-59,4
-60,271
-61,125
-61,961
-62,777
-63,573
-64,348
-65,102
-65,833
-66,541
-67,226
-67,888
-68,526
-69,141
-69,732
-70,3
-70,844
-71,364
-71,861
-72,334
-72,784
-73,211
-73,613
-73,991
-74,345
-74,673
-74,976
-75,252
-75,502
-75,725
-75,921
-76,089
-76,228
-76,339
-76,422
-76,475
-76,499
-76,495
-76,461
-76,399
-76,309
-76,191
-76,046
-75,876
-75,682
-75,464
-75,224
-74,964
-74,685
-74,388
-74,076
-73,751
-73,413
-73,067
-72,713
-72,354
-71,992
-71,63
-71,269
-70,913
-70,563
-70,222
-69,892
-69,574
-69,271
-68,984
-68,716
-68,467
-68,24
-68,035
-67,854
-67,697
-67,565
-67,458
-67,377
-67,321
-67,29
-67,284
-67,301
-67,342
-67,406
-67,491
-67,596
-67,72
-67,861
-68,019
-68,191
-68,375
-68,569
-68,773
-68,983
-69,198
-69,417
-69,637
-69,856
-70,073
-70,287
-70,495
-70,696
-70,888
-71,07
-71,242
-71,401
-71,548
-71,681
-71,801
-71,906
-71,998
-72,075
-72,137
-72,186
-72,219
-72,239
-72,244
-72,234
-72,212
-72,176
-72,127
-72,065
-71,992
-71,907
-71,812
-71,706
-71,591
-71,466
-71,333
-71,191
-71,042
-70,886
-70,724
-70,556
-70,382
-70,203
-70,019
-69,831
-69,637
-69,439
-69,235
-69,026
-68,812
-68,593
-68,37
-68,143
-67,913
-67,681
-67,447
-67,213
-66,98
-66,749
-66,52
-66,296
-66,076
-65,863
-65,658
-65,461
-65,274
-65,1
-64,938
-64,79
-64,658
-64,542
-64,443
-64,363
-64,302
-64,261
-64,242
-64,245
-64,272
-64,323
-64,4
-64,502
-64,629
-64,781
-64,956
-65,151
-65,364
-65,593
-65,833
-66,082
-66,335
-66,59
-66,843
-67,092
-67,332
-67,559
-67,771
-67,96
-68,122
-68,251
-68,339
-68,381
-68,37
-68,299
-68,161
-67,952
-67,667
-67,3
-66,844
-66,29
-65,632
-64,865
-63,989
-63,002
-61,909
-60,712
-59,418
-58,044
-56,602
-55,106
-53,567
-51,987
-50,371
-48,72
-47,042
-45,341
-43,62
-41,87
-40,078
-38,238
-36,339
-34,375
-32,333
-30,183
-27,905
-25,487
-22,923
-20,226
-17,416
-14,512
-11,534
-8,516
-5,496
-2,537
0,294
2,941
5,352
7,471
9,245
10,597
11,464
11,803
11,583
10,794
9,433
7,495
4,981
1,917
-1,662
-5,695
-10,107
-14,835
-19,818
-24,98
-30,241
-35,504
-40,679
-45,698
-50,504
-55,043
-59,264
-63,106
-66,51
-69,446
-71,892
-73,843
-75,326
-76,361
-76,985
-77,265
-77,265
-77,066
-76,768
-76,459
-76,236
-76,211
-76,482
-77,179
-78,483
-80,496
-83,253
-86,678
-90,498
-94,41
-98,138
-101,297
-103,45
-104,296
-103,674
-101,797
-99,39
-97,182
-95,82
-95,958
-98,049
-102,305
-108,586
-115,867
-122,179
-125,355
-123,087
-113,134
-93,719
-63,195
-20,464
34,181
99,187
172,218
250,036
329,147
406,087
476,73
537,01
583,795
614,59
627,821
623,108
600,351
560,015
504,009
434,929
355,83
270,455
182,353
94,842
11,917
-62,687
-126,185
-176,274
-211,853
-232,969
-239,83
-233,494
-216,503
-191,781
-162,438
-131,883
-102,59
-76,554
-56,006
-42,118
-34,795
-33,466
-36,831
-43,093
-50,974
-59,08
-65,557
-69,358
-70,127
-67,815
-63,034
-56,635
-49,202
-41,539
-34,712
-29,307
-25,594
-23,659
-23,203
-23,883
-25,462
-27,57
-29,774
-31,83
-33,584
-34,951
-35,961
-36,62
-36,896
-36,8
-36,345
-35,509
-34,285
-32,666
-30,65
-28,266
-25,558
-22,565
-19,326
-15,873
-12,229
-8,42
-4,472
-0,401
3,776
8,039
12,364
16,713
21,064
25,407
29,746
34,094
38,466
42,875
47,337
51,876
56,507
61,245
66,102
71,083
76,201
81,472
86,918
92,565
98,428
104,515
110,828
117,361
124,107
131,049
138,163
145,421
152,8
160,279
167,845
175,483
183,174
190,892
198,607
206,29
213,917
221,469
228,928
236,285
243,536
250,691
257,772
264,8
271,786
278,732
285,618
292,423
299,119
305,678
312,081
318,299
324,3
330,048
335,502
340,614
345,335
349,587
353,275
356,3
358,564
359,993
360,544
360,187
358,909
356,7
353,543
349,435
344,38
338,385
331,459
323,611
314,845
305,205
294,771
283,642
271,939
259,761
247,182
234,27
221,086
207,694
194,172
180,588
167,006
153,505
140,175
127,125
114,489
102,359
90,788
79,806
69,411
59,612
50,434
41,891
33,993
26,741
20,123
14,132
8,766
3,995
-0,232
-3,995
-7,404
-10,543
-13,464
-16,208
-18,792
-21,238
-23,575
-25,818
-27,971
-30,037
-32,019
-33,924
-35,769
-37,551
-39,252
-40,841
-42,264
-43,488
-44,496
-45,277
-45,834
-46,169
-46,285
-46,197
-45,933
-45,515
-44,962
-44,292
-43,514
-42,644
-41,708
-40,732
-39,749
-38,785
-37,858
-36,985
-36,181
-35,455
-34,817
-34,27
-33,809
-33,435
-33,146
-32,945
-32,834
-32,813
-32,879
-33,031
-33,266
-33,58
-33,97
-34,433
-34,965
-35,56
-36,216
-36,929
-37,696
-38,512
-39,374
-40,276
-41,213
-42,18
-43,172
-44,182
-45,206
-46,238
-47,273
-48,307
-49,334
-50,352
-51,354
-52,339
-53,301
-54,24
-55,15
-56,029
-56,876
-57,687
-58,46
-59,194
-59,886
-60,536
-61,142
-61,704
-62,222
-62,695
-63,125
-63,511
-63,855
-64,157
-64,418
-64,64
-64,825
-64,972
-65,085
-65,164
-65,211
-65,229
-65,218
-65,182
-65,12
-65,036
-64,931
-64,807
-64,665
-64,508
-64,337
-64,154
-63,961
-63,76
-63,553
-63,342
-63,128
-62,915
-62,702
-62,493
-62,287
-62,087
-61,894
-61,709
-61,532
-61,365
-61,209
-61,065
-60,933
-60,815
-60,711
-60,622
-60,549
-60,493
-60,453
-60,431
-60,427
-60,441
-60,474
-60,527
-60,599
-60,69
-60,801
-60,931
-61,08
-61,247
-61,432
-61,634
-61,851
-62,083
-62,329
-62,587
-62,857
-63,137
-63,426
-63,723
-64,027
-64,335
-64,647
-64,96
-65,274
-65,587
-65,896
-66,202
-66,501
-66,792
-67,074
-67,345
-67,603
-67,848
-68,078
-68,291
-68,487
-68,663
-68,821
-68,958
-69,075
-69,171
-69,246
-69,3
-69,334
-69,348
-69,343
-69,319
-69,277
-69,219
-69,144
-69,056
-68,954
-68,84
-68,717
-68,585
-68,447
-68,304
-68,157
-68,01
-67,863
-67,718
-67,577
-67,441
-67,313
-67,192
-67,081
-66,981
-66,892
-66,815
-66,751
-66,7
-66,662
-66,636
-66,624
-66,623
-66,634
-66,656
-66,687
-66,727
-66,775
-66,829
-66,888
-66,95
-67,014
-67,079
-67,142
-67,203
-67,258
-67,307
-67,347
-67,378
-67,398
-67,404
-67,397
-67,376
-67,338
-67,285
-67,216
-67,131
-67,031
-66,917
-66,79
-66,652
-66,506
-66,352
-66,194
-66,034
-65,875
-65,718
-65,568
-65,426
-65,296
-65,181
-65,082
-65,004
-64,95
-64,921
-64,92
-64,952
-65,017
-65,118
-65,258
-65,439
-65,662
-65,93
-66,243
-66,603
-67,008
-67,46
-67,956
-68,495
-69,073
-69,687
-70,331
-71,002
-71,694
-72,401
-73,118
-73,84
-74,561
-75,276
-75,979
-76,662
-77,32
-77,945
-78,53
-79,066
-79,545
-79,959
-80,299
-80,558
-80,728
-80,804
-80,777
-80,639
-80,38
-79,993
-79,473
-78,819
-78,029
-77,108
-76,059
-74,893
-73,625
-72,269
-70,84
-69,349
-67,804
-66,213
-64,581
-62,917
-61,23
-59,522
-57,789
-56,025
-54,218
-52,356
-50,426
-48,409
-46,278
-44,011
-41,594
-39,024
-36,307
-33,46
-30,504
-27,463
-24,366
-21,257
-18,188
-15,222
-12,427
-9,866
-7,601
-5,701
-4,246
-3,304
-2,925
-3,142
-3,967
-5,401
-7,44
-10,076
-13,286
-17,031
-21,259
-25,903
-30,892
-36,158
-41,629
-47,214
-52,805
-58,302
-63,623
-68,719
-73,563
-78,126
-82,359
-86,197
-89,581
-92,465
-94,846
-96,727
-98,071
-98,903
-99,301
-99,414
-99,531
-99,915
-100,636
-101,734
-103,233
-104,943
-106,732
-108,462
-109,624
-109,814
-108,951
-106,889
-103,75
-100,106
-96,241
-92,382
-89,27
-87,4
-87,1
-89,052
-93,354
-99,525
-107,431
-116,734
-126,591
-136,342
-144,917
-150,437
-151,412
-146,523
-134,101
-112,978
-82,266
-41,038
10,658
71,652
140,418
214,578
291,017
366,766
438,363
501,87
553,951
591,749
612,884
616,341
601,92
569,688
520,918
457,979
383,655
301,611
215,877
129,777
46,738
-29,534
-96,111
-150,787
-192,012
-219,648
-234,3
-236,44
-227,409
-209,568
-185,493
-157,984
-129,713
-102,492
-77,855
-57,682
-43,259
-34,85
-32,072
-33,912
-39,119
-46,758
-55,84
-64,842
-72,312
-77,447
-79,969
-80,106
-78,361
-75,095
-70,67
-65,769
-61,136
-57,177
-54,032
-51,587
-49,562
-47,767
-46,062
-44,232
-42,058
-39,448
-36,396
-32,971
-29,289
-25,433
-21,477
-17,516
-13,656
-9,988
-6,561
-3,406
-0,536
2,043
4,339
6,395
8,297
10,138
11,993
13,918
15,948
18,118
20,473
23,051
25,876
28,97
32,345
36,015
40
44,306
48,921
53,819
58,949
64,266
69,74
75,35
81,083
86,932
92,891
98,964
105,163
111,498
117,976
124,595
131,348
138,228
145,231
152,349
159,583
166,929
174,378
181,924
189,557
197,259
205,011
212,779
220,531
228,239
235,881
243,441
250,91
258,286
265,576
272,802
279,98
287,123
294,232
301,29
308,277
315,165
321,929
328,551
335,006
341,264
347,287
353,034
358,453
363,492
368,073
372,093
375,451
378,041
379,786
380,636
380,557
379,533
377,548
374,581
370,627
365,688
359,769
352,877
345,024
336,212
326,487
315,933
304,649
292,761
280,372
267,556
254,389
240,932
227,256
213,44
199,557
185,673
171,869
158,238
144,889
131,957
119,533
107,669
96,397
85,711
75,621
66,151
57,313
49,115
41,557
34,626
28,312
22,612
17,493
12,904
8,766
4,969
1,43
-1,901
-5,063
-8,074
-10,954
-13,73
-16,417
-19,017
-21,532
-23,963
-26,315
-28,603
-30,823
-32,955
-34,966
-36,804
-38,435
-39,844
-41,019
-41,962
-42,677
-43,165
-43,444
-43,538
-43,471
-43,263
-42,929
-42,481
-41,935
-41,316
-40,651
-39,971
-39,3
-38,658
-38,059
-37,516
-37,041
-36,639
-36,312
-36,057
-35,872
-35,755
-35,708
-35,731
-35,824
-35,984
-36,208
-36,492
-36,834
-37,23
-37,677
-38,169
-38,705
-39,279
-39,889
-40,531
-41,204
-41,902
-42,621
-43,358
-44,107
-44,866
-45,628
-46,391
-47,15
-47,901
-48,641
-49,368
-50,078
-50,77
-51,442
-52,093
-52,721
-53,325
-53,905
-54,46
-54,991
-55,496
-55,975
-56,43
-56,859
-57,265
-57,647
-58,007
-58,345
-58,665
-58,966
-59,25
-59,519
-59,775
-60,018
-60,251
-60,475
-60,691
-60,901
-61,106
-61,307
-61,506
-61,704
-61,901
-62,098
-62,295
-62,492
-62,691
-62,89
-63,09
-63,29
-63,491
-63,693
-63,894
-64,096
-64,297
-64,497
-64,695
-64,892
-65,085
-65,274
-65,458
-65,637
-65,81
-65,975
-66,133
-66,281
-66,42
-66,549
-66,666
-66,773
-66,868
-66,95
-67,021
-67,079
-67,126
-67,161
-67,185
-67,199
-67,203
-67,199
-67,186
-67,165
-67,138
-67,105
-67,067
-67,024
-66,979
-66,931
-66,882
-66,832
-66,782
-66,734
-66,687
-66,644
-66,605
-66,57
-66,541
-66,519
-66,503
-66,495
-66,496
-66,505
-66,523
-66,549
-66,585
-66,629
-66,68
-66,739
-66,805
-66,876
-66,951
-67,03
-67,111
-67,193
-67,275
-67,355
-67,434
-67,509
-67,58
-67,645
-67,705
-67,757
-67,802
-67,839
-67,867
-67,886
-67,895
-67,894
-67,883
-67,861
-67,828
-67,784
-67,73
-67,665
-67,589
-67,504
-67,41
-67,308
-67,198
-67,083
-66,964
-66,842
-66,719
-66,596
-66,475
-66,358
-66,247
-66,144
-66,048
-65,963
-65,89
-65,829
-65,781
-65,747
-65,728
-65,725
-65,737
-65,766
-65,81
-65,872
-65,951
-66,048
-66,162
-66,294
-66,444
-66,613
-66,799
-67,003
-67,224
-67,461
-67,715
-67,983
-68,265
-68,56
-68,867
-69,185
-69,511
-69,846
-70,187
-70,535
-70,887
-71,244
-71,604
-71,967
-72,334
-72,702
-73,073
-73,446
-73,82
-74,196
-74,573
-74,948
-75,322
-75,691
-76,054
-76,409
-76,753
-77,085
-77,402
-77,701
-77,983
-78,245
-78,485
-78,7
-78,888
-79,045
-79,168
-79,254
-79,299
-79,297
-79,244
-79,135
-78,966
-78,732
-78,427
-78,044
-77,573
-77,008
-76,347
-75,586
-74,725
-73,765
-72,709
-71,565
-70,347
-69,063
-67,722
-66,331
-64,892
-63,413
-61,9
-60,358
-58,795
-57,211
-55,598
-53,95
-52,254
-50,489
-48,635
-46,666
-44,546
-42,256
-39,784
-37,123
-34,28
-31,259
-28,071
-24,738
-21,287
-17,75
-14,175
-10,616
-7,132
-3,806
-0,715
2,062
4,433
6,335
7,711
8,514
8,718
8,302
7,256
5,589
3,315
0,449
-2,975
-6,912
-11,309
-16,08
-21,144
-26,422
-31,819
-37,25
-42,639
-47,905
-52,989
-57,84
-62,413
-66,668
-70,57
-74,07
-77,128
-79,723
-81,838
-83,486
-84,693
-85,481
-85,9
-86,017
-85,89
-85,595
-85,217
-84,825
-84,511
-84,379
-84,513
-85,041
-86,136
-87,89
-90,335
-93,388
-96,783
-100,24
-103,504
-106,199
-107,893
-108,293
-107,215
-104,856
-101,898
-98,995
-96,756
-95,824
-96,676
-99,6
-104,6
-110,862
-116,636
-119,95
-118,595
-110,34
-93,302
-65,592
-25,79
26,329
89,711
162,284
240,951
322,111
401,904
475,593
538,452
586,362
615,933
625,219
613,537
580,943
528,635
459,465
377,104
286,052
191,31
97,061
7,315
-73,822
-143,193
-198,734
-239,138
-264,587
-276,133
-274,57
-261,675
-240,248
-212,986
-182,722
-152,27
-123,427
-97,791
-77,368
-63,017
-54,54
-51,426
-52,483
-56,235
-61,687
-67,548
-72,013
-74,078
-73,417
-70,01
-64,444
-57,447
-49,502
-41,363
-34,076
-28,228
-24,07
-21,654
-20,66
-20,748
-21,693
-23,139
-24,667
-26,035
-27,085
-27,72
-27,979
-27,876
-27,387
-26,535
-25,331
-23,755
-21,81
-19,504
-16,842
-13,864
-10,614
-7,126
-3,436
0,429
4,446
8,581
12,814
17,135
21,53
25,986
30,478
34,966
39,433
43,878
48,308
52,741
57,192
61,673
66,203
70,804
75,497
80,297
85,218
90,262
95,443
100,776
106,284
111,994
117,928
124,092
130,491
137,123
143,979
151,051
158,318
165,748
173,312
180,986
188,747
196,583
204,475
212,396
220,319
228,207
236,031
243,768
251,403
258,919
266,31
273,577
280,731
287,803
294,821
301,796
308,727
315,598
322,383
329,061
335,608
342,003
348,22
354,219
359,951
365,372
370,427
375,053
379,168
382,658
385,41
387,331
388,356
388,445
387,575
385,729
382,891
379,053
374,213
368,39
361,604
353,87
345,207
335,637
325,22
314,058
302,271
289,969
277,242
264,16
250,786
237,183
223,424
209,58
195,717
181,895
168,188
154,686
141,498
128,74
116,493
104,794
93,659
83,095
73,122
63,767
55,048
46,971
39,534
32,727
26,544
20,975
15,987
11,522
7,497
3,806
0,373
-2,851
-5,902
-8,804
-11,584
-14,273
-16,889
-19,436
-21,918
-24,338
-26,702
-29,023
-31,292
-33,487
-35,572
-37,495
-39,225
-40,743
-42,041
-43,116
-43,972
-44,608
-45,04
-45,292
-45,385
-45,336
-45,16
-44,868
-44,478
-44,013
-43,501
-42,972
-42,45
-41,951
-41,493
-41,086
-40,739
-40,46
-40,249
-40,103
-40,02
-40,001
-40,044
-40,152
-40,325
-40,561
-40,855
-41,207
-41,612
-42,068
-42,573
-43,122
-43,711
-44,339
-45,002
-45,698
-46,424
-47,178
-47,954
-48,749
-49,559
-50,38
-51,208
-52,039
-52,868
-53,692
-54,508
-55,314
-56,106
-56,883
-57,643
-58,383
-59,103
-59,802
-60,477
-61,129
-61,757
-62,361
-62,94
-63,495
-64,025
-64,531
-65,014
-65,475
-65,916
-66,336
-66,739
-67,125
-67,497
-67,855
-68,201
-68,538
-68,867
-69,19
-69,508
-69,823
-70,137
-70,45
-70,765
-71,082
-71,401
-71,725
-72,052
-72,384
-72,722
-73,064
-73,411
-73,762
-74,119
-74,48
-74,844
-75,212
-75,581
-75,952
-76,323
-76,694
-77,062
-77,427
-77,788
-78,143
-78,49
-78,829
-79,158
-79,476
-79,781
-80,074
-80,351
-80,614
-80,862
-81,093
-81,308
-81,506
-81,687
-81,853
-82,002
-82,135
-82,253
-82,357
-82,448
-82,525
-82,592
-82,647
-82,694
-82,733
-82,765
-82,791
-82,814
-82,835
-82,854
-82,875
-82,897
-82,924
-82,955
-82,994
-83,04
-83,096
-83,163
-83,242
-83,333
-83,438
-83,557
-83,689
-83,837
-83,999
-84,175
-84,365
-84,569
-84,787
-85,016
-85,256
-85,507
-85,768
-86,037
-86,313
-86,596
-86,884
-87,176
-87,473
-87,771
-88,071
-88,371
-88,671
-88,969
-89,264
-89,556
-89,843
-90,125
-90,401
-90,67
-90,932
-91,186
-91,432
-91,67
-91,901
-92,123
-92,337
-92,545
-92,747
-92,945
-93,138
-93,329
-93,52
-93,711
-93,904
-94,1
-94,301
-94,506
-94,717
-94,935
-95,159
-95,391
-95,631
-95,879
-96,137
-96,404
-96,68
-96,965
-97,259
-97,561
-97,872
-98,191
-98,516
-98,848
-99,184
-99,525
-99,869
-100,213
-100,557
-100,896
-101,228
-101,55
-101,856
-102,142
-102,403
-102,635
-102,833
-102,992
-103,109
-103,181
-103,204
-103,177
-103,098
-102,962
-102,767
-102,508
-102,181
-101,781
-101,305
-100,748
-100,106
-99,376
-98,555
-97,645
-96,643
-95,549
-94,359
-93,068
-91,674
-90,18
-88,588
-86,902
-85,13
-83,281
-81,374
-79,432
-77,473
-75,511
-73,552
-71,597
-69,649
-67,713
-65,789
-63,879
-61,984
-60,101
-58,232
-56,385
-54,56
-52,748
-50,931
-49,077
-47,169
-45,207
-43,2
-41,167
-39,13
-37,116
-35,163
-33,322
-31,636
-30,145
-28,88
-27,857
-27,106
-26,665
-26,581
-26,91
-27,692
-28,943
-30,672
-32,887
-35,576
-38,722
-42,282
-46,189
-50,385
-54,821
-59,447
-64,22
-69,081
-73,958
-78,777
-83,462
-87,943
-92,162
-96,056
-99,555
-102,603
-105,16
-107,213
-108,777
-109,873
-110,516
-110,738
-110,581
-110,11
-109,415
-108,596
-107,754
-107,001
-106,441
-106,203
-106,479
-107,408
-109,057
-111,393
-114,199
-117,21
-120,202
-122,857
-124,774
-125,667
-125,335
-123,858
-121,844
-119,96
-118,819
-119,101
-121,271
-125,525
-131,878
-139,649
-147,187
-152,565
-153,57
-147,812
-133,411
-108,67
-72,119
-23,424
36,535
106,044
182,246
261,633
340,716
415,329
480,977
533,815
570,537
588,742
587,492
566,512
526,192
468,456
396,271
313,263
223,858
132,293
42,288
-42,051
-116,973
-179,782
-228,51
-262,455
-282,14
-288,22
-281,757
-265,07
-240,897
-212,08
-181,627
-151,709
-123,913
-100,114
-81,825
-69,452
-62,743
-60,823
-62,314
-66,174
-71,442
-76,643
-80,325
-81,664
-80,354
-76,608
-71,035
-64,13
-56,369
-48,556
-41,571
-35,966
-31,995
-29,617
-28,551
-28,542
-29,366
-30,669
-32,062
-33,289
-34,19
-34,717
-34,916
-34,803
-34,378
-33,674
-32,72
-31,53
-30,104
-28,413
-26,436
-24,179
-21,663
-18,918
-15,97
-12,83
-9,516
-6,044
-2,424
1,336
5,236
9,284
13,473
17,793
22,231
26,76
31,372
36,068
40,853
45,737
50,734
55,851
61,103
66,507
72,074
77,815
83,738
89,848
96,158
102,682
109,434
116,426
123,665
131,147
138,865
146,803
154,936
163,24
171,688
180,253
188,913
197,644
206,419
215,211
223,984
232,705
241,347
249,883
258,293
266,563
274,688
282,674
290,545
298,316
305,998
313,588
321,071
328,434
335,658
342,728
349,63
356,342
362,842
369,102
375,087
380,746
386,011
390,792
394,975
398,457
401,138
402,944
403,816
403,7
402,554
400,341
397,03
392,592
387
380,228
372,272
363,158
352,94
341,709
329,582
316,683
303,144
289,087
274,63
259,888
244,969
229,98
215,031
200,243
185,752
171,697
158,192
145,323
133,153
121,711
111,01
101,046
91,796
83,234
75,329
68,051
61,375
55,268
49,684
44,562
39,815
35,355
31,114
27,036
23,082
19,225
15,446
11,736
8,104
4,564
1,13
-2,189
-5,39
-8,465
-11,396
-14,155
-16,702
-19,003
-21,035
-22,785
-24,248
-25,425
-26,319
-26,942
-27,318
-27,475
-27,437
-27,227
-26,862
-26,362
-25,755
-25,068
-24,335
-23,583
-22,833
-22,103
-21,41
-20,765
-20,18
-19,662
-19,21
-18,825
-18,509
-18,264
-18,092
-17,996
-17,972
-18,02
-18,136
-18,318
-18,563
-18,869
-19,233
-19,65
-20,119
-20,636
-21,201
-21,808
-22,456
-23,138
-23,852
-24,591
-25,352
-26,129
-26,919
-27,717
-28,518
-29,32
-30,119
-30,912
-31,696
-32,468
-33,227
-33,97
-34,695
-35,401
-36,086
-36,751
-37,394
-38,015
-38,613
-39,19
-39,744
-40,276
-40,786
-41,276
-41,747
-42,198
-42,631
-43,048
-43,449
-43,837
-44,211
-44,575
-44,928
-45,272
-45,61
-45,941
-46,268
-46,592
-46,912
-47,232
-47,551
-47,87
-48,19
-48,513
-48,837
-49,165
-49,497
-49,833
-50,174
-50,52
-50,873
-51,231
-51,596
-51,968
-52,347
-52,732
-53,125
-53,525
-53,932
-54,346
-54,767
-55,194
-55,628
-56,068
-56,514
-56,965
-57,422
-57,884
-58,35
-58,82
-59,293
-59,769
-60,249
-60,73
-61,213
-61,697
-62,181
-62,666
-63,15
-63,632
-64,111
-64,587
-65,058
-65,524
-65,984
-66,437
-66,881
-67,317
-67,742
-68,158
-68,562
-68,953
-69,333
-69,698
-70,05
-70,387
-70,709
-71,016
-71,307
-71,581
-71,84
-72,081
-72,305
-72,511
-72,7
-72,87
-73,022
-73,155
-73,27
-73,366
-73,444
-73,504
-73,546
-73,571
-73,579
-73,572
-73,549
-73,512
-73,461
-73,397
-73,322
-73,236
-73,14
-73,035
-72,923
-72,804
-72,679
-72,55
-72,418
-72,284
-72,149
-72,016
-71,885
-71,758
-71,637
-71,523
-71,419
-71,326
-71,245
-71,178
-71,126
-71,091
-71,075
-71,077
-71,101
-71,145
-71,213
-71,303
-71,416
-71,553
-71,714
-71,898
-72,106
-72,336
-72,588
-72,862
-73,157
-73,472
-73,805
-74,155
-74,52
-74,897
-75,283
-75,673
-76,064
-76,452
-76,833
-77,202
-77,555
-77,888
-78,198
-78,481
-78,735
-78,955
-79,136
-79,273
-79,361
-79,393
-79,363
-79,267
-79,096
-78,847
-78,514
-78,096
-77,59
-76,993
-76,3
-75,504
-74,601
-73,59
-72,474
-71,252
-69,93
-68,514
-67,016
-65,455
-63,851
-62,216
-60,558
-58,876
-57,173
-55,452
-53,717
-51,972
-50,211
-48,429
-46,622
-44,792
-42,941
-41,064
-39,144
-37,151
-35,06
-32,867
-30,579
-28,216
-25,797
-23,344
-20,889
-18,472
-16,153
-13,986
-12,013
-10,266
-8,777
-7,586
-6,749
-6,335
-6,393
-6,952
-8,024
-9,611
-11,716
-14,336
-17,441
-20,985
-24,898
-29,117
-33,59
-38,274
-43,112
-48,037
-52,969
-57,817
-62,516
-67,009
-71,243
-75,165
-78,714
-81,84
-84,518
-86,74
-88,521
-89,878
-90,829
-91,403
-91,654
-91,638
-91,428
-91,111
-90,764
-90,481
-90,369
-90,517
-91,05
-92,131
-93,848
-96,219
-99,161
-102,413
-105,701
-108,779
-111,298
-112,851
-113,171
-112,111
-109,866
-107,101
-104,46
-102,503
-101,83
-102,875
-105,86
-110,717
-116,58
-121,685
-124,115
-121,802
-112,662
-94,992
-67,171
-28,009
22,399
82,741
150,949
224,068
298,78
371,722
438,827
495,998
540,009
568,311
579,321
572,668
548,377
507,093
450,885
382,609
305,542
223,532
140,107
58,288
-18,465
-86,945
-144,869
-190,622
-223,706
-244,699
-254,262
-253,127
-243,001
-226,096
-204,8
-181,563
-158,016
-135,194
-114,302
-96,708
-83,272
-74,151
-68,822
-66,359
-66,182
-67,878
-70,759
-73,724
-75,592
-75,719
-74,082
-71,012
-66,818
-61,73
-56,051
-50,378
-45,5
-41,889
-39,653
-38,667
-38,663
-39,433
-40,818
-42,561
-44,326
-45,873
-47,057
-47,827
-48,23
-48,285
-47,976
-47,299
-46,243
-44,81
-43,023
-40,902
-38,466
-35,741
-32,747
-29,507
-26,052
-22,408
-18,604
-14,661
-10,583
-6,382
-2,072
2,321
6,757
11,218
15,701
20,214
24,77
29,38
34,053
38,803
43,653
48,621
53,724
58,971
64,365
69,916
75,642
81,564
87,708
94,086
100,7
107,552
114,633
121,935
129,441
137,123
144,951
152,899
160,943
169,07
177,263
185,498
193,747
201,978
210,161
218,273
226,297
234,216
242,018
249,7
257,268
264,749
272,16
279,508
286,788
293,98
301,058
308,002
314,787
321,383
327,761
333,88
339,694
345,162
350,231
354,839
358,913
362,357
365,078
367,006
368,085
368,278
367,564
365,928
363,364
359,88
355,487
350,198
344,04
337,031
329,197
320,577
311,215
301,177
290,545
279,394
267,793
255,808
243,488
230,884
218,045
205,012
191,837
178,581
165,301
152,065
138,958
126,062
113,475
101,282
89,538
78,291
67,581
57,443
47,915
39,033
30,818
23,289
16,448
10,288
4,798
-0,05
-4,31
-8,05
-11,364
-14,342
-17,045
-19,526
-21,825
-23,98
-26,027
-27,997
-29,908
-31,771
-33,594
-35,384
-37,149
-38,886
-40,578
-42,191
-43,679
-45,002
-46,136
-47,068
-47,793
-48,309
-48,618
-48,728
-48,659
-48,434
-48,069
-47,582
-46,985
-46,295
-45,535
-44,732
-43,919
-43,12
-42,355
-41,639
-40,985
-40,402
-39,896
-39,469
-39,117
-38,838
-38,628
-38,489
-38,42
-38,422
-38,491
-38,625
-38,819
-39,07
-39,376
-39,734
-40,139
-40,589
-41,08
-41,609
-42,175
-42,776
-43,408
-44,066
-44,748
-45,448
-46,164
-46,892
-47,626
-48,364
-49,101
-49,837
-50,567
-51,291
-52,006
-52,711
-53,405
-54,087
-54,757
-55,414
-56,056
-56,685
-57,299
-57,897
-58,481
-59,05
-59,603
-60,142
-60,666
-61,176
-61,673
-62,156
-62,627
-63,085
-63,533
-63,969
-64,396
-64,813
-65,222
-65,623
-66,018
-66,406
-66,788
-67,165
-67,536
-67,901
-68,261
-68,615
-68,963
-69,303
-69,637
-69,964
-70,282
-70,592
-70,894
-71,186
-71,469
-71,741
-72,002
-72,252
-72,491
-72,717
-72,93
-73,131
-73,319
-73,494
-73,656
-73,804
-73,939
-74,06
-74,169
-74,263
-74,345
-74,414
-74,47
-74,515
-74,548
-74,57
-74,583
-74,586
-74,581
-74,568
-74,548
-74,522
-74,491
-74,455
-74,416
-74,374
-74,33
-74,285
-74,24
-74,195
-74,152
-74,111
-74,072
-74,037
-74,005
-73,977
-73,954
-73,936
-73,923
-73,915
-73,913
-73,917
-73,926
-73,941
-73,96
-73,985
-74,014
-74,047
-74,084
-74,124
-74,166
-74,21
-74,256
-74,303
-74,35
-74,397
-74,442
-74,487
-74,529
-74,567
-74,602
-74,633
-74,658
-74,678
-74,69
-74,695
-74,692
-74,679
-74,657
-74,624
-74,58
-74,525
-74,458
-74,378
-74,285
-74,18
-74,061
-73,929
-73,784
-73,625
-73,453
-73,268
-73,07
-72,859
-72,636
-72,401
-72,155
-71,898
-71,63
-71,353
-71,067
-70,772
-70,471
-70,163
-69,851
-69,537
-69,222
-68,908
-68,597
-68,292
-67,994
-67,705
-67,428
-67,164
-66,916
-66,684
-66,472
-66,28
-66,111
-65,967
-65,849
-65,758
-65,697
-65,666
-65,667
-65,7
-65,766
-65,867
-66,001
-66,17
-66,374
-66,614
-66,888
-67,197
-67,538
-67,91
-68,31
-68,736
-69,182
-69,645
-70,119
-70,601
-71,086
-71,568
-72,044
-72,509
-72,959
-73,39
-73,797
-74,175
-74,516
-74,815
-75,064
-75,257
-75,386
-75,443
-75,421
-75,314
-75,116
-74,824
-74,432
-73,934
-73,318
-72,58
-71,716
-70,726
-69,612
-68,376
-67,023
-65,563
-64,014
-62,392
-60,714
-58,989
-57,218
-55,401
-53,544
-51,65
-49,728
-47,775
-45,78
-43,738
-41,645
-39,499
-37,298
-35,026
-32,653
-30,159
-27,529
-24,767
-21,895
-18,934
-15,903
-12,834
-9,763
-6,743
-3,846
-1,129
1,363
3,584
5,49
7,023
8,104
8,676
8,699
8,148
7,018
5,304
2,997
0,116
-3,302
-7,205
-11,51
-16,151
-21,073
-26,206
-31,481
-36,815
-42,107
-47,281
-52,275
-57,03
-61,493
-65,604
-69,297
-72,534
-75,296
-77,578
-79,41
-80,82
-81,839
-82,532
-82,957
-83,185
-83,315
-83,428
-83,609
-83,957
-84,557
-85,522
-87,019
-89,15
-91,949
-95,357
-99,123
-102,961
-106,611
-109,713
-111,856
-112,754
-112,217
-110,371
-107,838
-105,277
-103,283
-102,477
-103,26
-105,778
-109,955
-115,017
-119,294
-120,882
-117,697
-107,611
-89,011
-60,538
-21,114
29,29
89,563
157,902
231,553
307,234
381,861
451,944
513,702
563,938
599,922
619,483
621,769
606,618
574,075
525,316
462,555
388,466
306,633
221,006
134,887
51,73
-24,704
-91,418
-146,176
-187,459
-215,179
-230,015
-232,529
-224,154
-207,325
-184,644
-158,848
-132,479
-107,206
-84,402
-65,765
-52,389
-44,38
-41,269
-42,052
-45,565
-50,979
-57,4
-63,43
-67,787
-69,823
-69,395
-66,828
-62,652
-57,259
-51,085
-44,889
-39,486
-35,347
-32,634
-31,236
-30,877
-31,349
-32,471
-33,948
-35,438
-36,712
-37,639
-38,179
-38,363
-38,188
-37,618
-36,634
-35,241
-33,451
-31,281
-28,751
-25,87
-22,66
-19,156
-15,393
-11,405
-7,222
-2,868
1,632
6,251
10,958
15,718
20,486
25,232
29,938
34,598
39,218
43,808
48,378
52,944
57,528
62,15
66,827
71,572
76,394
81,31
86,34
91,513
96,857
102,393
108,136
114,092
120,264
126,646
133,229
139,989
146,903
153,95
161,111
168,375
175,729
183,155
190,633
198,137
205,644
213,136
220,595
228,005
235,359
242,657
249,911
257,151
264,397
271,665
278,964
286,288
293,627
300,968
308,284
315,549
322,725
329,768
336,636
343,282
349,639
355,634
361,179
366,164
370,495
374,077
376,816
378,643
379,497
379,332
378,129
375,877
372,576
368,24
362,882
356,53
349,231
341,035
332,004
322,219
311,749
300,672
289,085
277,063
264,679
252,002
239,082
225,973
212,726
199,386
186
172,612
159,26
145,995
132,872
119,945
107,284
94,949
82,987
71,463
60,43
49,932
40,017
30,715
22,05
14,047
6,725
0,096
-5,833
-11,079
-15,671
-19,644
-23,059
-25,977
-28,462
-30,595
-32,443
-34,06
-35,494
-36,78
-37,942
-39,014
-40,021
-40,983
-41,917
-42,832
-43,73
-44,613
-45,466
-46,271
-47,001
-47,62
-48,104
-48,441
-48,627
-48,666
-48,568
-48,342
-47,998
-47,556
-47,031
-46,438
-45,791
-45,099
-44,379
-43,65
-42,934
-42,259
-41,642
-41,099
-40,638
-40,265
-39,984
-39,795
-39,698
-39,685
-39,752
-39,896
-40,115
-40,41
-40,777
-41,212
-41,712
-42,27
-42,881
-43,541
-44,244
-44,985
-45,759
-46,563
-47,392
-48,245
-49,118
-50,007
-50,909
-51,82
-52,734
-53,65
-54,562
-55,467
-56,361
-57,241
-58,106
-58,953
-59,78
-60,586
-61,369
-62,128
-62,862
-63,57
-64,252
-64,906
-65,532
-66,13
-66,7
-67,242
-67,756
-68,242
-68,701
-69,135
-69,543
-69,927
-70,288
-70,628
-70,947
-71,247
-71,53
-71,798
-72,051
-72,292
-72,522
-72,743
-72,956
-73,164
-73,367
-73,567
-73,765
-73,963
-74,162
-74,363
-74,566
-74,773
-74,983
-75,198
-75,418
-75,644
-75,875
-76,111
-76,352
-76,598
-76,849
-77,104
-77,362
-77,622
-77,883
-78,145
-78,406
-78,665
-78,92
-79,17
-79,414
-79,65
-79,876
-80,092
-80,296
-80,485
-80,66
-80,817
-80,957
-81,077
-81,176
-81,253
-81,307
-81,338
-81,345
-81,326
-81,282
-81,214
-81,119
-81
-80,855
-80,687
-80,495
-80,279
-80,042
-79,784
-79,507
-79,212
-78,9
-78,573
-78,232
-77,88
-77,518
-77,148
-76,772
-76,392
-76,009
-75,626
-75,245
-74,868
-74,496
-74,132
-73,778
-73,435
-73,104
-72,789
-72,489
-72,207
-71,942
-71,697
-71,472
-71,267
-71,083
-70,92
-70,778
-70,656
-70,555
-70,474
-70,413
-70,371
-70,347
-70,34
-70,349
-70,374
-70,412
-70,464
-70,527
-70,601
-70,684
-70,775
-70,872
-70,973
-71,078
-71,185
-71,292
-71,399
-71,502
-71,602
-71,697
-71,786
-71,869
-71,944
-72,012
-72,072
-72,124
-72,17
-72,209
-72,243
-72,271
-72,297
-72,32
-72,341
-72,363
-72,386
-72,413
-72,444
-72,481
-72,525
-72,579
-72,643
-72,72
-72,811
-72,917
-73,04
-73,181
-73,342
-73,525
-73,73
-73,958
-74,211
-74,489
-74,793
-75,123
-75,477
-75,856
-76,258
-76,68
-77,119
-77,572
-78,034
-78,503
-78,973
-79,44
-79,9
-80,348
-80,782
-81,196
-81,587
-81,948
-82,275
-82,56
-82,799
-82,983
-83,107
-83,163
-83,143
-83,042
-82,853
-82,572
-82,191
-81,703
-81,099
-80,372
-79,52
-78,54
-77,435
-76,208
-74,864
-73,414
-71,874
-70,257
-68,577
-66,844
-65,066
-63,25
-61,4
-59,524
-57,632
-55,726
-53,802
-51,852
-49,866
-47,831
-45,734
-43,557
-41,274
-38,862
-36,312
-33,62
-30,794
-27,847
-24,8
-21,675
-18,5
-15,315
-12,174
-9,137
-6,273
-3,648
-1,325
0,626
2,13
3,125
3,561
3,404
2,638
1,251
-0,757
-3,377
-6,591
-10,363
-14,639
-19,35
-24,41
-29,73
-35,224
-40,797
-46,35
-51,792
-57,043
-62,032
-66,704
-70,999
-74,862
-78,247
-81,112
-83,432
-85,205
-86,454
-87,224
-87,584
-87,606
-87,356
-86,919
-86,386
-85,847
-85,408
-85,171
-85,225
-85,691
-86,723
-88,427
-90,843
-93,888
-97,291
-100,717
-103,824
-106,193
-107,363
-106,995
-104,919
-101,308
-96,826
-92,289
-88,492
-86,251
-86,247
-88,786
-93,74
-100,237
-106,411
-109,941
-108,313
-98,888
-79,325
-47,827
-3,288
54,232
123,221
201,121
284,478
369,095
450,504
524,13
585,6
631,249
658,389
665,358
651,577
617,534
564,761
495,874
414,281
323,978
229,278
134,4
43,521
-39,34
-110,901
-168,851
-211,81
-239,579
-252,787
-252,417
-240,322
-219,287
-192,307
-162,31
-131,948
-103,127
-77,459
-56,72
-42,032
-33,423
-30,265
-31,498
-35,922
-42,635
-50,644
-58,394
-64,434
-68,046
-69,08
-67,834
-64,814
-60,371
-54,896
-49,179
-44,099
-40,172
-37,588
-36,237
-35,826
-36,142
-37,004
-38,113
-39,122
-39,801
-40,031
-39,801
-39,191
-38,253
-37,015
-35,509
-33,773
-31,822
-29,654
-27,27
-24,668
-21,861
-18,877
-15,735
-12,447
-9,028
-5,495
-1,858
1,876
5,712
9,659
13,713
17,858
22,076
26,34
30,638
34,97
39,34
43,752
48,216
52,74
57,338
62,028
66,822
71,73
76,758
81,912
87,204
92,656
98,288
104,12
110,167
116,433
122,92
129,621
136,524
143,606
150,843
158,209
165,68
173,242
180,874
188,558
196,267
203,971
211,64
219,253
226,784
234,215
241,539
248,75
255,861
262,902
269,895
276,857
283,8
290,71
297,577
304,39
311,129
317,776
324,31
330,699
336,915
342,932
348,697
354,146
359,193
363,714
367,598
370,742
373,045
374,441
374,872
374,277
372,619
369,871
366,001
360,991
354,815
347,439
338,867
329,133
318,299
306,484
293,807
280,389
266,367
251,856
236,967
221,826
206,537
191,197
175,921
160,825
146,045
131,743
118,046
105,046
92,812
81,363
70,71
60,854
51,774
43,444
35,841
28,925
22,666
17,042
12
7,479
3,394
-0,377
-3,929
-7,33
-10,641
-13,892
-17,104
-20,3
-23,479
-26,628
-29,74
-32,8
-35,802
-38,747
-41,621
-44,398
-47,041
-49,495
-51,719
-53,69
-55,389
-56,812
-57,959
-58,831
-59,444
-59,826
-59,999
-59,986
-59,806
-59,472
-59,003
-58,426
-57,766
-57,057
-56,325
-55,587
-54,862
-54,162
-53,497
-52,877
-52,304
-51,775
-51,289
-50,848
-50,451
-50,102
-49,802
-49,548
-49,34
-49,175
-49,052
-48,97
-48,928
-48,924
-48,956
-49,024
-49,128
-49,268
-49,443
-49,653
-49,897
-50,171
-50,476
-50,809
-51,169
-51,554
-51,963
-52,394
-52,846
-53,319
-53,812
-54,323
-54,851
-55,396
-55,957
-56,533
-57,123
-57,726
-58,341
-58,968
-59,605
-60,252
-60,907
-61,569
-62,237
-62,909
-63,585
-64,263
-64,941
-65,619
-66,294
-66,966
-67,632
-68,29
-68,939
-69,577
-70,203
-70,814
-71,408
-71,985
-72,542
-73,078
-73,591
-74,079
-74,542
-74,979
-75,388
-75,769
-76,121
-76,443
-76,737
-77,001
-77,237
-77,443
-77,623
-77,774
-77,9
-78,001
-78,078
-78,132
-78,166
-78,18
-78,176
-78,156
-78,122
-78,076
-78,02
-77,954
-77,882
-77,805
-77,725
-77,643
-77,562
-77,481
-77,404
-77,331
-77,263
-77,202
-77,147
-77,1
-77,061
-77,029
-77,006
-76,99
-76,982
-76,98
-76,985
-76,996
-77,012
-77,031
-77,053
-77,078
-77,103
-77,128
-77,153
-77,175
-77,194
-77,209
-77,22
-77,225
-77,225
-77,219
-77,205
-77,185
-77,158
-77,123
-77,08
-77,029
-76,97
-76,904
-76,831
-76,75
-76,664
-76,573
-76,477
-76,377
-76,275
-76,172
-76,068
-75,964
-75,863
-75,764
-75,669
-75,579
-75,496
-75,419
-75,35
-75,29
-75,238
-75,196
-75,163
-75,139
-75,124
-75,119
-75,123
-75,137
-75,161
-75,195
-75,24
-75,296
-75,362
-75,44
-75,529
-75,629
-75,74
-75,861
-75,993
-76,135
-76,287
-76,448
-76,619
-76,799
-76,987
-77,183
-77,388
-77,599
-77,818
-78,043
-78,274
-78,511
-78,755
-79,005
-79,261
-79,523
-79,791
-80,063
-80,34
-80,619
-80,897
-81,172
-81,44
-81,699
-81,944
-82,172
-82,38
-82,565
-82,723
-82,851
-82,948
-83,009
-83,03
-83,007
-82,935
-82,807
-82,619
-82,366
-82,04
-81,636
-81,148
-80,573
-79,908
-79,148
-78,286
-77,315
-76,228
-75,024
-73,702
-72,264
-70,714
-69,054
-67,296
-65,456
-63,55
-61,594
-59,597
-57,559
-55,485
-53,378
-51,245
-49,094
-46,925
-44,727
-42,496
-40,228
-37,921
-35,575
-33,174
-30,691
-28,108
-25,413
-22,611
-19,724
-16,774
-13,782
-10,775
-7,79
-4,873
-2,094
0,493
2,846
4,919
6,673
8,052
8,98
9,403
9,283
8,599
7,354
5,55
3,184
0,274
-3,145
-7,023
-11,289
-15,881
-20,753
-25,847
-31,101
-36,436
-41,754
-46,973
-52,029
-56,865
-61,434
-65,685
-69,56
-73,014
-76,02
-78,562
-80,641
-82,257
-83,42
-84,159
-84,53
-84,602
-84,448
-84,144
-83,773
-83,424
-83,204
-83,222
-83,573
-84,378
-85,794
-87,916
-90,767
-94,233
-97,999
-101,697
-104,992
-107,481
-108,712
-108,352
-106,239
-102,639
-98,332
-94,239
-91,166
-89,761
-90,552
-93,802
-99,311
-106,006
-111,822
-114,087
-110,146
-97,856
-75,055
-39,783
8,893
70,898
143,787
222,566
303,536
383,944
461,675
536,691
603,934
654,598
681,118
675,467
637,783
576,066
498,067
413,012
325,978
236,738
146,796
57,997
-26,496
-101,474
-163,744
-211,709
-244,867
-264,126
-270,351
-264,687
-249,295
-226,616
-199,308
-170,327
-141,863
-115,716
-93,874
-77,462
-66,66
-61,25
-60,289
-62,272
-66,057
-70,366
-73,509
-74,496
-72,925
-68,666
-62,211
-54,352
-45,693
-37,039
-29,441
-23,486
-19,448
-17,425
-17,137
-18,224
-20,407
-23,276
-26,349
-29,346
-32,07
-34,381
-36,28
-37,749
-38,738
-39,254
-39,305
-38,863
-37,929
-36,51
-34,61
-32,275
-29,562
-26,516
-23,194
-19,64
-15,89
-11,986
-7,961
-3,834
0,372
4,636
8,933
13,225
17,492
21,732
25,951
30,168
34,402
38,669
42,994
47,402
51,915
56,553
61,331
66,258
71,345
76,61
82,07
87,751
93,677
99,857
106,297
112,996
119,949
127,144
134,566
142,188
149,978
157,908
165,952
174,086
182,294
190,552
198,831
207,099
215,318
223,454
231,485
239,394
247,163
254,787
262,266
269,613
276,862
284,04
291,159
298,217
305,194
312,067
318,823
325,446
331,92
338,227
344,328
350,184
355,759
361
365,836
370,174
373,884
376,841
378,955
380,159
380,414
379,69
377,945
375,149
371,285
366,34
360,316
353,214
345,019
335,746
325,449
314,218
302,194
289,521
276,314
262,671
248,678
234,419
219,995
205,503
191,017
176,627
162,423
148,52
135,06
122,157
109,88
98,265
87,305
76,986
67,311
58,282
49,893
42,139
34,995
28,443
22,476
17,068
12,173
7,715
3,584
-0,307
-4,014
-7,577
-11,01
-14,324
-17,539
-20,666
-23,701
-26,642
-29,486
-32,233
-34,898
-37,477
-39,956
-42,301
-44,461
-46,398
-48,095
-49,542
-50,738
-51,688
-52,394
-52,872
-53,147
-53,242
-53,178
-52,971
-52,631
-52,174
-51,625
-51,008
-50,357
-49,696
-49,044
-48,416
-47,826
-47,284
-46,798
-46,371
-45,999
-45,681
-45,416
-45,206
-45,054
-44,958
-44,919
-44,932
-44,997
-45,11
-45,27
-45,474
-45,72
-46,005
-46,326
-46,682
-47,073
-47,495
-47,947
-48,426
-48,929
-49,452
-49,994
-50,55
-51,119
-51,696
-52,281
-52,872
-53,466
-54,063
-54,661
-55,259
-55,858
-56,457
-57,055
-57,652
-58,249
-58,845
-59,442
-60,037
-60,633
-61,229
-61,826
-62,423
-63,021
-63,622
-64,224
-64,83
-65,439
-66,052
-66,669
-67,292
-67,92
-68,554
-69,194
-69,841
-70,493
-71,151
-71,815
-72,484
-73,158
-73,834
-74,513
-75,193
-75,873
-76,55
-77,224
-77,893
-78,555
-79,21
-79,854
-80,488
-81,109
-81,715
-82,306
-82,879
-83,434
-83,968
-84,482
-84,972
-85,438
-85,879
-86,293
-86,679
-87,037
-87,364
-87,661
-87,927
-88,16
-88,362
-88,531
-88,668
-88,773
-88,846
-88,887
-88,899
-88,881
-88,834
-88,759
-88,659
-88,532
-88,382
-88,209
-88,014
-87,799
-87,564
-87,311
-87,041
-86,754
-86,452
-86,136
-85,807
-85,465
-85,113
-84,751
-84,38
-84,001
-83,615
-83,224
-82,828
-82,427
-82,023
-81,616
-81,206
-80,794
-80,38
-79,964
-79,545
-79,125
-78,702
-78,277
-77,85
-77,42
-76,986
-76,55
-76,112
-75,671
-75,228
-74,786
-74,343
-73,902
-73,465
-73,033
-72,607
-72,189
-71,781
-71,384
-70,999
-70,629
-70,274
-69,936
-69,616
-69,317
-69,04
-68,787
-68,559
-68,359
-68,188
-68,047
-67,939
-67,864
-67,825
-67,822
-67,857
-67,931
-68,045
-68,2
-68,396
-68,631
-68,905
-69,214
-69,557
-69,929
-70,326
-70,743
-71,176
-71,62
-72,07
-72,522
-72,972
-73,415
-73,848
-74,265
-74,661
-75,028
-75,359
-75,648
-75,886
-76,066
-76,179
-76,218
-76,175
-76,048
-75,829
-75,513
-75,093
-74,557
-73,899
-73,117
-72,208
-71,173
-70,014
-68,734
-67,347
-65,87
-64,321
-62,714
-61,054
-59,341
-57,578
-55,767
-53,912
-52,017
-50,078
-48,088
-46,045
-43,95
-41,808
-39,614
-37,352
-34,991
-32,511
-29,905
-27,185
-24,373
-21,487
-18,553
-15,605
-12,686
-9,86
-7,183
-4,699
-2,442
-0,445
1,249
2,584
3,488
3,914
3,83
3,225
2,093
0,425
-1,775
-4,481
-7,646
-11,199
-15,077
-19,232
-23,618
-28,176
-32,839
-37,523
-42,138
-46,62
-50,912
-54,957
-58,701
-62,072
-65,014
-67,499
-69,519
-71,095
-72,245
-72,988
-73,353
-73,394
-73,183
-72,815
-72,393
-72,007
-71,761
-71,748
-72,095
-72,99
-74,562
-76,859
-79,825
-83,224
-86,787
-90,289
-93,414
-95,751
-97,021
-97,046
-95,958
-94,42
-93,116
-92,64
-93,625
-96,488
-101,369
-108,208
-116,211
-123,629
-128,493
-128,631
-121,776
-106,197
-80,37
-43,029
5,968
65,566
133,972
208,349
285,286
361,477
433,043
495,808
546,249
581,357
598,86
597,877
578,232
540,222
485,512
416,748
337,038
250,31
160,602
71,434
-13,439
-90,326
-156,484
-209,782
-248,822
-273,467
-284,097
-281,439
-267,394
-244,545
-215,548
-183,368
-150,84
-120,167
-93,5
-72,67
-58,317
-50,265
-47,871
-49,862
-54,763
-61,219
-67,552
-72,128
-74,133
-73,323
-69,842
-64,285
-57,346
-49,687
-42,243
-35,966
-31,341
-28,535
-27,465
-27,802
-29,234
-31,481
-34,146
-36,814
-39,223
-41,208
-42,71
-43,755
-44,336
-44,426
-44,018
-43,126
-41,773
-39,993
-37,818
-35,272
-32,394
-29,229
-25,832
-22,249
-18,521
-14,684
-10,76
-6,773
-2,748
1,289
5,304
9,274
13,195
17,073
20,92
24,753
28,588
32,447
36,356
40,342
44,425
48,621
52,942
57,399
62,008
66,79
71,766
76,953
82,359
87,994
93,866
99,98
106,338
112,935
119,755
126,784
134,007
141,406
148,96
156,64
164,415
172,256
180,14
188,044
195,942
203,803
211,589
219,268
226,813
234,209
241,44
248,495
255,367
262,058
268,586
274,98
281,25
287,396
293,402
299,246
304,917
310,407
315,705
320,795
325,646
330,223
334,496
338,428
341,961
345,019
347,496
349,286
350,313
350,525
349,89
348,379
345,955
342,589
338,261
332,964
326,7
319,466
311,25
302,067
291,968
281,039
269,405
257,185
244,475
231,358
217,911
204,222
190,387
176,495
162,629
148,872
135,323
122,1
109,334
97,119
85,516
74,547
64,21
54,505
45,445
37,035
29,273
22,144
15,623
9,695
4,341
-0,475
-4,815
-8,771
-12,44
-15,889
-19,167
-22,298
-25,299
-28,191
-30,993
-33,712
-36,349
-38,899
-41,361
-43,742
-46,044
-48,255
-50,347
-52,273
-53,994
-55,485
-56,735
-57,742
-58,507
-59,031
-59,324
-59,407
-59,301
-59,03
-58,611
-58,055
-57,379
-56,606
-55,764
-54,885
-53,997
-53,12
-52,271
-51,464
-50,712
-50,024
-49,405
-48,855
-48,371
-47,955
-47,609
-47,335
-47,134
-47,005
-46,946
-46,953
-47,025
-47,16
-47,355
-47,608
-47,916
-48,275
-48,685
-49,144
-49,649
-50,197
-50,785
-51,407
-52,06
-52,74
-53,441
-54,16
-54,89
-55,628
-56,371
-57,113
-57,852
-58,584
-59,305
-60,013
-60,705
-61,379
-62,033
-62,664
-63,271
-63,852
-64,406
-64,933
-65,431
-65,899
-66,337
-66,744
-67,122
-67,469
-67,785
-68,072
-68,33
-68,56
-68,762
-68,937
-69,087
-69,213
-69,316
-69,398
-69,46
-69,505
-69,532
-69,545
-69,544
-69,532
-69,509
-69,477
-69,438
-69,393
-69,342
-69,288
-69,231
-69,173
-69,114
-69,054
-68,996
-68,938
-68,883
-68,83
-68,78
-68,733
-68,689
-68,65
-68,614
-68,583
-68,557
-68,535
-68,518
-68,507
-68,5
-68,499
-68,502
-68,511
-68,525
-68,544
-68,568
-68,596
-68,629
-68,666
-68,707
-68,752
-68,8
-68,852
-68,906
-68,964
-69,025
-69,089
-69,156
-69,225
-69,297
-69,371
-69,448
-69,527
-69,608
-69,691
-69,775
-69,861
-69,947
-70,034
-70,12
-70,205
-70,288
-70,369
-70,447
-70,52
-70,588
-70,65
-70,706
-70,754
-70,794
-70,825
-70,846
-70,857
-70,858
-70,848
-70,826
-70,792
-70,745
-70,687
-70,615
-70,531
-70,435
-70,326
-70,205
-70,071
-69,927
-69,771
-69,606
-69,431
-69,249
-69,059
-68,865
-68,667
-68,468
-68,27
-68,074
-67,882
-67,698
-67,524
-67,361
-67,212
-67,079
-66,965
-66,871
-66,8
-66,753
-66,733
-66,74
-66,776
-66,843
-66,94
-67,07
-67,232
-67,426
-67,654
-67,913
-68,205
-68,529
-68,883
-69,266
-69,676
-70,112
-70,571
-71,051
-71,547
-72,057
-72,576
-73,101
-73,626
-74,147
-74,66
-75,159
-75,639
-76,095
-76,52
-76,91
-77,259
-77,561
-77,811
-78,004
-78,133
-78,195
-78,184
-78,097
-77,93
-77,678
-77,338
-76,907
-76,381
-75,759
-75,039
-74,218
-73,295
-72,272
-71,147
-69,922
-68,598
-67,179
-65,667
-64,066
-62,381
-60,617
-58,78
-56,878
-54,917
-52,907
-50,856
-48,773
-46,67
-44,558
-42,45
-40,358
-38,297
-36,278
-34,318
-32,43
-30,627
-28,923
-27,329
-25,859
-24,523
-23,333
-22,302
-21,44
-20,76
-20,27
-19,98
-19,897
-20,026
-20,367
-20,92
-21,684
-22,658
-23,844
-25,244
-26,859
-28,688
-30,73
-32,975
-35,412
-38,02
-40,769
-43,628
-46,564
-49,545
-52,542
-55,527
-58,468
-61,331
-64,073
-66,651
-69,02
-71,141
-72,971
-74,487
-75,687
-76,589
-77,238
-77,685
-77,966
-78,129
-78,237
-78,363
-78,601
-79,047
-79,779
-80,907
-82,59
-84,921
-87,91
-91,42
-95,101
-98,559
-101,447
-103,367
-103,889
-102,76
-99,972
-95,951
-91,621
-87,978
-85,842
-85,887
-88,636
-94,186
-101,993
-110,612
-117,704
-120,577
-116,68
-103,802
-79,914
-43,596
5,44
66,225
136,416
212,59
291,007
367,803
438,518
498,8
545,076
574,451
585,304
577,309
550,497
505,714
445,304
372,299
290,22
203,191
114,898
28,772
-51,116
-121,268
-179,313
-223,407
-252,922
-268,228
-269,656
-258,419
-237,23
-208,966
-176,567
-143,227
-111,213
-82,485
-59,396
-43,196
-33,821
-30,78
-32,883
-38,449
-46,281
-54,93
-62,394
-67,496
-69,796
-69,169
-66,144
-61,488
-55,719
-49,634
-44,333
-40,409
-38,112
-37,508
-38,268
-40,029
-42,531
-45,359
-48,019
-50,231
-51,819
-52,69
-52,902
-52,482
-51,432
-49,813
-47,693
-45,121
-42,154
-38,833
-35,184
-31,265
-27,147
-22,899
-18,599
-14,295
-10,024
-5,82
-1,704
2,314
6,227
10,045
13,781
17,444
21,052
24,627
28,189
31,769
35,397
39,104
42,926
46,892
51,022
55,337
59,851
64,572
69,513
74,68
80,077
85,714
91,598
97,728
104,104
110,721
117,568
124,633
131,893
139,324
146,9
154,599
162,399
170,285
178,24
186,241
194,263
202,275
210,247
218,16
225,997
233,741
241,385
248,927
256,373
263,75
271,077
278,363
285,604
292,777
299,856
306,816
313,635
320,291
326,759
332,999
338,965
344,612
349,891
354,74
359,081
362,803
365,797
367,977
369,282
369,676
369,142
367,661
365,217
361,8
357,41
352,062
345,774
338,557
330,423
321,399
311,545
300,962
289,773
278,082
265,971
253,51
240,753
227,77
214,633
201,411
188,164
174,956
161,861
148,975
136,412
124,275
112,631
101,51
90,917
80,861
71,364
62,448
54,132
46,42
39,303
32,777
26,845
21,49
16,678
12,345
8,4
4,759
1,362
-1,829
-4,835
-7,677
-10,382
-12,972
-15,458
-17,843
-20,126
-22,314
-24,422
-26,452
-28,394
-30,219
-31,882
-33,348
-34,596
-35,617
-36,409
-36,974
-37,313
-37,437
-37,369
-37,13
-36,741
-36,22
-35,576
-34,827
-33,994
-33,103
-32,188
-31,272
-30,376
-29,516
-28,705
-27,954
-27,273
-26,666
-26,129
-25,663
-25,266
-24,941
-24,689
-24,511
-24,406
-24,371
-24,403
-24,501
-24,661
-24,882
-25,16
-25,492
-25,875
-26,305
-26,782
-27,303
-27,863
-28,459
-29,087
-29,742
-30,42
-31,116
-31,827
-32,548
-33,275
-34,005
-34,735
-35,462
-36,184
-36,899
-37,603
-38,297
-38,978
-39,645
-40,297
-40,933
-41,552
-42,154
-42,738
-43,303
-43,851
-44,38
-44,892
-45,388
-45,867
-46,332
-46,782
-47,22
-47,647
-48,063
-48,472
-48,873
-49,269
-49,661
-50,051
-50,439
-50,827
-51,217
-51,608
-52,001
-52,397
-52,796
-53,199
-53,605
-54,014
-54,427
-54,842
-55,261
-55,681
-56,104
-56,527
-56,95
-57,373
-57,793
-58,21
-58,623
-59,028
-59,426
-59,815
-60,192
-60,555
-60,904
-61,236
-61,549
-61,842
-62,112
-62,359
-62,58
-62,775
-62,942
-63,08
-63,189
-63,269
-63,318
-63,337
-63,326
-63,284
-63,212
-63,111
-62,981
-62,823
-62,637
-62,426
-62,189
-61,93
-61,649
-61,349
-61,031
-60,697
-60,35
-59,992
-59,625
-59,253
-58,877
-58,5
-58,126
-57,756
-57,393
-57,041
-56,7
-56,373
-56,063
-55,771
-55,498
-55,247
-55,018
-54,813
-54,632
-54,477
-54,349
-54,247
-54,173
-54,126
-54,106
-54,114
-54,149
-54,211
-54,299
-54,412
-54,55
-54,712
-54,897
-55,103
-55,329
-55,574
-55,837
-56,115
-56,408
-56,712
-57,028
-57,353
-57,685
-58,024
-58,368
-58,716
-59,066
-59,419
-59,772
-60,126
-60,478
-60,83
-61,179
-61,525
-61,869
-62,208
-62,543
-62,874
-63,199
-63,52
-63,835
-64,144
-64,448
-64,745
-65,036
-65,32
-65,599
-65,872
-66,139
-66,402
-66,66
-66,916
-67,169
-67,421
-67,673
-67,926
-68,179
-68,435
-68,693
-68,955
-69,22
-69,489
-69,764
-70,045
-70,332
-70,627
-70,93
-71,242
-71,564
-71,897
-72,24
-72,596
-72,964
-73,346
-73,742
-74,153
-74,579
-75,022
-75,481
-75,956
-76,446
-76,95
-77,466
-77,99
-78,522
-79,056
-79,591
-80,124
-80,651
-81,17
-81,679
-82,175
-82,656
-83,119
-83,56
-83,974
-84,355
-84,7
-85,001
-85,252
-85,448
-85,58
-85,644
-85,637
-85,555
-85,392
-85,142
-84,795
-84,345
-83,79
-83,128
-82,358
-81,482
-80,504
-79,433
-78,287
-77,081
-75,828
-74,531
-73,187
-71,798
-70,365
-68,89
-67,374
-65,812
-64,196
-62,52
-60,785
-58,989
-57,128
-55,182
-53,121
-50,921
-48,576
-46,096
-43,502
-40,816
-38,063
-35,276
-32,498
-29,787
-27,2
-24,779
-22,562
-20,581
-18,88
-17,519
-16,568
-16,084
-16,102
-16,634
-17,683
-19,245
-21,312
-23,863
-26,856
-30,231
-33,934
-37,925
-42,17
-46,632
-51,259
-55,975
-60,696
-65,348
-69,87
-74,217
-78,347
-82,214
-85,779
-89,001
-91,86
-94,35
-96,456
-98,164
-99,473
-100,386
-100,932
-101,176
-101,173
-100,989
-100,709
-100,406
-100,18
-100,141
-100,371
-101,005
-102,211
-104,085
-106,655
-109,811
-113,248
-116,651
-119,75
-122,178
-123,524
-123,518
-122,066
-119,549
-116,823
-114,75
-114,04
-115,238
-118,709
-124,553
-132,396
-140,917
-147,91
-150,84
-147,194
-134,948
-112,451
-78,29
-31,846
26,2
93,926
168,244
245,411
322,014
394,484
458,771
511,254
549,018
569,909
573,381
559,841
529,432
483,187
423,408
352,758
274,627
192,835
110,16
29,327
-45,955
-112,621
-168,442
-211,535
-241,485
-258,719
-263,17
-255,7
-238,729
-214,791
-186,684
-157,467
-129,105
-103,306
-82,328
-67,379
-58,43
-55,068
-56,134
-60,034
-65,734
-71,99
-77,006
-79,75
-79,859
-77,259
-72,509
-66,378
-59,361
-52,19
-45,879
-40,968
-37,699
-36,139
-35,973
-36,868
-38,595
-40,795
-43,054
-45,132
-46,865
-48,153
-49,03
-49,49
-49,499
-49,065
-48,184
-46,852
-45,083
-42,889
-40,285
-37,31
-34,007
-30,422
-26,596
-22,562
-18,346
-13,98
-9,483
-4,88
-0,193
4,553
9,317
14,072
18,807
23,52
28,222
32,928
37,651
42,408
47,221
52,11
57,089
62,172
67,363
72,674
78,117
83,709
89,473
95,428
101,589
107,967
114,566
121,382
128,413
135,645
143,058
150,632
158,339
166,153
174,052
182,017
190,028
198,066
206,105
214,118
222,071
229,933
237,683
245,306
252,788
260,126
267,32
274,386
281,352
288,25
295,092
301,881
308,6
315,226
321,741
328,13
334,378
340,464
346,355
352,007
357,381
362,432
367,094
371,284
374,883
377,767
379,844
381,047
381,331
380,678
379,056
376,436
372,802
368,148
362,481
355,812
348,143
339,471
329,834
319,303
307,995
296,053
283,588
270,692
257,444
243,91
230,171
216,317
202,421
188,547
174,773
161,182
147,886
135,018
122,669
110,891
99,702
89,088
79,051
69,608
60,767
52,534
44,905
37,861
31,396
25,513
20,184
15,364
10,977
6,918
3,11
-0,493
-3,926
-7,197
-10,324
-13,332
-16,23
-19,021
-21,704
-24,277
-26,746
-29,13
-31,423
-33,608
-35,654
-37,509
-39,141
-40,534
-41,68
-42,58
-43,237
-43,654
-43,846
-43,84
-43,657
-43,316
-42,835
-42,222
-41,495
-40,677
-39,797
-38,885
-37,968
-37,063
-36,188
-35,356
-34,579
-33,866
-33,219
-32,636
-32,117
-31,664
-31,278
-30,963
-30,72
-30,547
-30,444
-30,408
-30,439
-30,534
-30,693
-30,911
-31,188
-31,52
-31,907
-32,348
-32,84
-33,382
-33,969
-34,598
-35,266
-35,969
-36,703
-37,465
-38,249
-39,053
-39,873
-40,706
-41,549
-42,398
-43,252
-44,107
-44,96
-45,809
-46,652
-47,486
-48,309
-49,118
-49,913
-50,69
-51,448
-52,185
-52,9
-53,59
-54,255
-54,892
-55,501
-56,081
-56,63
-57,148
-57,634
-58,087
-58,506
-58,892
-59,245
-59,563
-59,847
-60,097
-60,314
-60,497
-60,647
-60,765
-60,852
-60,907
-60,934
-60,931
-60,902
-60,847
-60,768
-60,667
-60,544
-60,403
-60,244
-60,069
-59,882
-59,683
-59,475
-59,26
-59,04
-58,817
-58,594
-58,372
-58,153
-57,939
-57,732
-57,534
-57,346
-57,17
-57,006
-56,858
-56,724
-56,606
-56,505
-56,421
-56,355
-56,304
-56,271
-56,254
-56,253
-56,266
-56,294
-56,335
-56,389
-56,453
-56,528
-56,61
-56,7
-56,795
-56,893
-56,994
-57,095
-57,196
-57,294
-57,387
-57,476
-57,558
-57,631
-57,696
-57,75
-57,792
-57,823
-57,842
-57,847
-57,84
-57,82
-57,787
-57,743
-57,687
-57,621
-57,546
-57,462
-57,371
-57,274
-57,173
-57,068
-56,962
-56,856
-56,751
-56,649
-56,551
-56,46
-56,377
-56,303
-56,24
-56,19
-56,153
-56,131
-56,126
-56,139
-56,17
-56,22
-56,29
-56,381
-56,492
-56,623
-56,774
-56,944
-57,133
-57,339
-57,562
-57,8
-58,051
-58,315
-58,59
-58,874
-59,166
-59,464
-59,766
-60,071
-60,376
-60,681
-60,984
-61,282
-61,575
-61,86
-62,137
-62,402
-62,655
-62,894
-63,118
-63,325
-63,515
-63,685
-63,836
-63,967
-64,078
-64,169
-64,24
-64,291
-64,324
-64,338
-64,335
-64,316
-64,282
-64,235
-64,176
-64,107
-64,029
-63,943
-63,85
-63,754
-63,654
-63,552
-63,451
-63,352
-63,256
-63,166
-63,084
-63,012
-62,953
-62,908
-62,881
-62,871
-62,883
-62,916
-62,973
-63,055
-63,162
-63,297
-63,458
-63,648
-63,866
-64,112
-64,387
-64,689
-65,018
-65,374
-65,755
-66,162
-66,592
-67,045
-67,519
-68,014
-68,528
-69,06
-69,607
-70,166
-70,734
-71,308
-71,882
-72,453
-73,016
-73,566
-74,098
-74,608
-75,092
-75,547
-75,968
-76,352
-76,695
-76,991
-77,236
-77,423
-77,548
-77,605
-77,588
-77,49
-77,307
-77,035
-76,669
-76,206
-75,641
-74,965
-74,172
-73,262
-72,233
-71,087
-69,828
-68,46
-66,992
-65,441
-63,82
-62,145
-60,427
-58,67
-56,878
-55,056
-53,209
-51,343
-49,46
-47,55
-45,602
-43,607
-41,555
-39,435
-37,235
-34,925
-32,482
-29,893
-27,15
-24,266
-21,26
-18,151
-14,962
-11,726
-8,481
-5,289
-2,22
0,672
3,33
5,699
7,722
9,322
10,432
11,005
11,006
10,423
9,256
7,505
5,173
2,285
-1,123
-4,995
-9,257
-13,853
-18,722
-23,797
-29,002
-34,243
-39,427
-44,483
-49,348
-53,974
-58,316
-62,323
-65,943
-69,143
-71,896
-74,189
-76,022
-77,397
-78,336
-78,879
-79,094
-79,058
-78,837
-78,505
-78,142
-77,835
-77,693
-77,83
-78,336
-79,337
-80,999
-83,414
-86,579
-90,338
-94,325
-98,14
-101,444
-103,83
-104,851
-104,25
-102,014
-98,578
-94,882
-91,876
-90,285
-90,679
-93,462
-98,611
-105,498
-112,594
-117,484
-117,495
-110,172
-93,479
-65,69
-25,654
26,73
90,329
162,715
240,434
319,728
396,943
468,148
529,478
577,73
610,292
625,581
623,371
603,861
567,558
515,937
451,055
375,522
292,82
206,283
118,687
33,607
-45,128
-114,386
-171,007
-213,865
-244,309
-261,86
-265,598
-254,931
-227,6
-187,329
-142,978
-102,543
-75,503
-64,454
-63,885
-68,591
-72,289
-72,703
-72,915
-74,547
-78,345
-83,151
-85,912
-85,406
-81,699
-75,42
-67,87
-59,801
-51,742
-44,605
-38,947
-34,994
-32,818
-32,135
-32,608
-34,002
-35,982
-38,138
-40,212
-42,048
-43,56
-44,765
-45,643
-46,157
-46,313
-46,129
-45,606
-44,731
-43,469
-41,793
-39,719
-37,282
-34,531
-31,51
-28,243
-24,752
-21,063
-17,206
-13,211
-9,096
-4,865
-0,529
3,895
8,381
12,894
17,42
21,961
26,524
31,123
35,772
40,479
45,26
50,132
55,114
60,221
65,464
70,845
76,375
82,07
87,951
94,044
100,366
106,921
113,712
120,735
127,982
135,442
143,092
150,899
158,833
166,869
174,983
183,162
191,383
199,618
207,838
216,008
224,1
232,1
239,992
247,761
255,403
262,92
270,328
277,664
284,948
292,188
299,382
306,512
313,559
320,509
327,338
334,021
340,522
346,788
352,771
358,421
363,671
368,446
372,652
376,172
378,912
380,798
381,772
381,8
380,851
378,904
375,954
372,009
367,087
361,22
354,44
346,779
338,287
329,024
319,07
308,528
297,49
286,038
274,249
262,189
249,92
237,498
224,973
212,387
199,786
187,214
174,724
162,374
150,225
138,339
126,769
115,555
104,733
94,331
84,378
74,9
65,924
57,472
49,564
42,215
35,431
29,213
23,547
18,41
13,759
9,535
5,683
2,151
-1,104
-4,112
-6,904
-9,508
-11,948
-14,246
-16,416
-18,47
-20,42
-22,278
-24,047
-25,724
-27,295
-28,729
-30,001
-31,095
-31,998
-32,712
-33,239
-33,581
-33,75
-33,762
-33,634
-33,386
-33,035
-32,592
-32,073
-31,496
-30,883
-30,262
-29,657
-29,083
-28,557
-28,087
-27,683
-27,35
-27,091
-26,902
-26,779
-26,721
-26,723
-26,787
-26,911
-27,089
-27,319
-27,593
-27,908
-28,26
-28,643
-29,053
-29,485
-29,935
-30,399
-30,874
-31,359
-31,848
-32,34
-32,828
-33,312
-33,787
-34,25
-34,699
-35,132
-35,547
-35,942
-36,319
-36,676
-37,015
-37,337
-37,642
-37,933
-38,212
-38,481
-38,742
-38,997
-39,25
-39,502
-39,757
-40,017
-40,286
-40,565
-40,858
-41,166
-41,492
-41,839
-42,207
-42,599
-43,015
-43,457
-43,925
-44,42
-44,942
-45,491
-46,065
-46,666
-47,29
-47,936
-48,603
-49,288
-49,989
-50,702
-51,425
-52,154
-52,887
-53,62
-54,35
-55,073
-55,787
-56,488
-57,172
-57,838
-58,481
-59,098
-59,688
-60,247
-60,774
-61,266
-61,721
-62,139
-62,518
-62,856
-63,155
-63,413
-63,63
-63,808
-63,946
-64,046
-64,11
-64,138
-64,134
-64,098
-64,034
-63,944
-63,831
-63,697
-63,546
-63,379
-63,2
-63,012
-62,817
-62,617
-62,417
-62,217
-62,021
-61,831
-61,649
-61,477
-61,317
-61,172
-61,042
-60,929
-60,835
-60,76
-60,706
-60,672
-60,661
-60,67
-60,702
-60,755
-60,829
-60,924
-61,038
-61,171
-61,321
-61,488
-61,669
-61,864
-62,071
-62,288
-62,515
-62,749
-62,99
-63,236
-63,485
-63,738
-63,992
-64,247
-64,502
-64,755
-65,005
-65,252
-65,495
-65,733
-65,965
-66,19
-66,408
-66,619
-66,821
-67,015
-67,2
-67,376
-67,543
-67,701
-67,85
-67,99
-68,121
-68,245
-68,362
-68,471
-68,575
-68,672
-68,765
-68,853
-68,937
-69,016
-69,092
-69,164
-69,233
-69,297
-69,359
-69,417
-69,472
-69,524
-69,573
-69,62
-69,663
-69,704
-69,743
-69,78
-69,814
-69,847
-69,877
-69,907
-69,935
-69,962
-69,989
-70,014
-70,039
-70,063
-70,085
-70,107
-70,126
-70,144
-70,161
-70,176
-70,19
-70,203
-70,217
-70,231
-70,248
-70,268
-70,293
-70,324
-70,361
-70,407
-70,463
-70,529
-70,607
-70,698
-70,803
-70,923
-71,059
-71,213
-71,385
-71,577
-71,788
-72,019
-72,271
-72,545
-72,84
-73,158
-73,499
-73,864
-74,252
-74,665
-75,101
-75,561
-76,044
-76,548
-77,071
-77,61
-78,162
-78,723
-79,289
-79,856
-80,42
-80,977
-81,523
-82,053
-82,565
-83,055
-83,518
-83,95
-84,343
-84,693
-84,992
-85,235
-85,414
-85,522
-85,551
-85,498
-85,357
-85,126
-84,799
-84,368
-83,825
-83,163
-82,381
-81,477
-80,452
-79,306
-78,044
-76,677
-75,223
-73,699
-72,118
-70,484
-68,796
-67,056
-65,265
-63,427
-61,543
-59,609
-57,617
-55,564
-53,45
-51,276
-49,037
-46,714
-44,277
-41,702
-38,983
-36,129
-33,163
-30,11
-26,998
-23,863
-20,754
-17,732
-14,859
-12,181
-9,737
-7,563
-5,703
-4,216
-3,176
-2,642
-2,651
-3,219
-4,347
-6,03
-8,252
-10,981
-14,167
-17,736
-21,628
-25,797
-30,202
-34,809
-39,571
-44,416
-49,268
-54,055
-58,71
-63,183
-67,437
-71,436
-75,17
-78,63
-81,814
-84,727
-87,357
-89,673
-91,669
-93,324
-94,608
-95,568
-96,296
-96,941
-97,75
-98,935
-100,629
-102,94
-105,921
-109,464
-113,367
-117,273
-120,617
-122,87
-123,55
-122,323
-119,088
-114,026
-107,529
-100,226
-93,044
-87,043
-83,462
-83,346
-87,293
-95,447
-107,42
-122,387
-139,037
-155,439
-168,944
-176,768
-176,309
-165,324
-142,278
-106,17
-56,652
5,451
78,112
158,441
242,824
327,37
408,269
481,555
543,388
590,664
620,952
632,709
625,473
599,285
554,873
494,008
419,231
333,695
241,233
145,865
51,584
-37,19
-116,414
-182,828
-233,901
-268,33
-285,958
-287,513
-274,86
-251,167
-220,005
-185,078
-150,069
-117,876
-90,956
-71,226
-59,318
-54,682
-56,165
-62,104
-70,611
-80,113
-88,901
-95,327
-98,639
-98,764
-96,048
-91,26
-85,235
-78,654
-72,397
-67,389
-64,069
-62,569
-62,777
-64,311
-66,812
-69,984
-73,416
-76,683
-79,52
-81,738
-83,246
-84,066
-84,198
-83,643
-82,444
-80,645
-78,29
-75,428
-72,103
-68,36
-64,258
-59,862
-55,24
-50,458
-45,576
-40,662
-35,774
-30,947
-26,208
-21,568
-17,028
-12,591
-8,253
-3,996
0,2
4,36
8,506
12,657
16,837
21,072
25,388
29,815
34,379
39,096
43,981
49,046
54,3
59,75
65,403
71,261
77,327
83,609
90,112
96,837
103,784
110,946
118,309
125,86
133,578
141,436
149,407
157,466
165,588
173,757
181,95
190,146
198,317
206,428
214,451
222,361
230,138
237,77
245,248
252,575
259,764
266,85
273,86
280,818
287,729
294,583
301,365
308,061
314,654
321,131
327,469
333,639
339,606
345,334
350,767
355,841
360,459
364,497
367,832
370,35
371,961
372,611
372,251
370,845
368,36
364,775
360,074
354,25
347,298
339,209
329,994
319,688
308,366
296,151
283,175
269,583
255,499
241,023
226,255
211,292
196,228
181,155
166,169
151,362
136,85
122,766
109,232
96,364
84,231
72,861
62,263
52,425
43,338
35,003
27,409
20,544
14,391
8,93
4,131
-0,038
-3,643
-6,774
-9,53
-12,014
-14,3
-16,437
-18,457
-20,379
-22,22
-23,994
-25,707
-27,361
-28,959
-30,507
-32,006
-33,46
-34,852
-36,151
-37,317
-38,306
-39,089
-39,652
-39,99
-40,107
-40,011
-39,715
-39,242
-38,614
-37,856
-36,984
-36,016
-34,965
-33,851
-32,701
-31,54
-30,398
-29,299
-28,258
-27,289
-26,402
-25,603
-24,896
-24,278
-23,745
-23,294
-22,922
-22,629
-22,413
-22,274
-22,207
-22,209
-22,274
-22,399
-22,579
-22,809
-23,085
-23,403
-23,759
-24,149
-24,572
-25,023
-25,498
-25,995
-26,509
-27,035
-27,572
-28,114
-28,658
-29,202
-29,743
-30,278
-30,806
-31,326
-31,836
-32,334
-32,821
-33,295
-33,756
-34,204
-34,638
-35,058
-35,463
-35,854
-36,231
-36,594
-36,943
-37,277
-37,599
-37,907
-38,203
-38,486
-38,757
-39,017
-39,265
-39,502
-39,727
-39,941
-40,143
-40,333
-40,511
-40,676
-40,829
-40,967
-41,091
-41,2
-41,293
-41,37
-41,429
-41,471
-41,494
-41,498
-41,482
-41,447
-41,39
-41,313
-41,214
-41,095
-40,953
-40,791
-40,607
-40,403
-40,179
-39,935
-39,672
-39,392
-39,094
-38,782
-38,456
-38,119
-37,771
-37,415
-37,054
-36,689
-36,322
-35,956
-35,593
-35,236
-34,886
-34,545
-34,217
-33,902
-33,602
-33,321
-33,059
-32,818
-32,601
-32,408
-32,241
-32,102
-31,99
-31,909
-31,857
-31,836
-31,845
-31,885
-31,955
-32,055
-32,183
-32,339
-32,521
-32,728
-32,956
-33,205
-33,472
-33,753
-34,047
-34,351
-34,663
-34,978
-35,295
-35,612
-35,924
-36,23
-36,526
-36,811
-37,08
-37,332
-37,564
-37,774
-37,959
-38,117
-38,245
-38,343
-38,408
-38,438
-38,434
-38,392
-38,314
-38,199
-38,045
-37,855
-37,628
-37,366
-37,069
-36,739
-36,378
-35,988
-35,571
-35,129
-34,664
-34,18
-33,677
-33,16
-32,63
-32,09
-31,544
-30,993
-30,441
-29,891
-29,345
-28,806
-28,277
-27,761
-27,261
-26,778
-26,316
-25,877
-25,464
-25,078
-24,723
-24,4
-24,11
-23,856
-23,639
-23,459
-23,318
-23,217
